# Output from CTFFind version 4.1.14, run on 2024-08-30 16:05:32
# Input file: CtfFind/job005/Movies/20170629_00049_frameImage_PS.mrc ; Number of micrographs: 1
# Pixel size: 1.400 Angstroms ; acceleration voltage: 200.0 keV ; spherical aberration: 1.40 mm ; amplitude contrast: 0.10
# Box size: 512 pixels ; min. res.: 30.0 Angstroms ; max. res.: 5.0 Angstroms ; min. def.: 5000.0 um; max. def. 50000.0 um; num. frames averaged: 1
# 6 lines per micrograph: #1 - spatial frequency (1/Angstroms); #2 - 1D rotational average of spectrum (assuming no astigmatism); #3 - 1D rotational average of spectrum; #4 - CTF fit; #5 - cross-correlation between spectrum and CTF fit; #6 - 2sigma of expected cross correlation of noise
0.000000 0.001396 0.002791 0.004187 0.005582 0.006978 0.008373 0.009769 0.011164 0.012560 0.013955 0.015351 0.016746 0.018142 0.019538 0.020933 0.022329 0.023724 0.025120 0.026515 0.027911 0.029306 0.030702 0.032097 0.033493 0.034888 0.036284 0.037680 0.039075 0.040471 0.041866 0.043262 0.044657 0.046053 0.047448 0.048844 0.050239 0.051635 0.053030 0.054426 0.055822 0.057217 0.058613 0.060008 0.061404 0.062799 0.064195 0.065590 0.066986 0.068381 0.069777 0.071172 0.072568 0.073964 0.075359 0.076755 0.078150 0.079546 0.080941 0.082337 0.083732 0.085128 0.086523 0.087919 0.089314 0.090710 0.092106 0.093501 0.094897 0.096292 0.097688 0.099083 0.100479 0.101874 0.103270 0.104665 0.106061 0.107456 0.108852 0.110247 0.111643 0.113039 0.114434 0.115830 0.117225 0.118621 0.120016 0.121412 0.122807 0.124203 0.125598 0.126994 0.128389 0.129785 0.131181 0.132576 0.133972 0.135367 0.136763 0.138158 0.139554 0.140949 0.142345 0.143740 0.145136 0.146531 0.147927 0.149323 0.150718 0.152114 0.153509 0.154905 0.156300 0.157696 0.159091 0.160487 0.161882 0.163278 0.164673 0.166069 0.167465 0.168860 0.170256 0.171651 0.173047 0.174442 0.175838 0.177233 0.178629 0.180024 0.181420 0.182815 0.184211 0.185607 0.187002 0.188398 0.189793 0.191189 0.192584 0.193980 0.195375 0.196771 0.198166 0.199562 0.200957 0.202353 0.203749 0.205144 0.206540 0.207935 0.209331 0.210726 0.212122 0.213517 0.214913 0.216308 0.217704 0.219099 0.220495 0.221891 0.223286 0.224682 0.226077 0.227473 0.228868 0.230264 0.231659 0.233055 0.234450 0.235846 0.237241 0.238637 0.240033 0.241428 0.242824 0.244219 0.245615 0.247010 0.248406 0.249801 0.251197 0.252592 0.253988 0.255383 0.256779 0.258175 0.259570 0.260966 0.262361 0.263757 0.265152 0.266548 0.267943 0.269339 0.270734 0.272130 0.273525 0.274921 0.276317 0.277712 0.279108 0.280503 0.281899 0.283294 0.284690 0.286085 0.287481 0.288876 0.290272 0.291667 0.293063 0.294458 0.295854 0.297250 0.298645 0.300041 0.301436 0.302832 0.304227 0.305623 0.307018 0.308414 0.309809 0.311205 0.312600 0.313996 0.315392 0.316787 0.318183 0.319578 0.320974 0.322369 0.323765 0.325160 0.326556 0.327951 0.329347 0.330742 0.332138 0.333534 0.334929 0.336325 0.337720 0.339116 0.340511 0.341907 0.343302 0.344698 0.346093 0.347489 0.348884 0.350280 0.351676 0.353071 0.354467 0.355862 0.357258 0.358653 0.360049 0.361444 0.362840 0.364235 0.365631 0.367026 0.368422 0.369818 0.371213 0.372609 0.374004 0.375400 0.376795 0.378191 0.379586 0.380982 0.382377 0.383773 0.385168 0.386564 0.387960 0.389355 0.390751 0.392146 0.393542 0.394937 0.396333 0.397728 0.399124 0.400519 0.401915 0.403310 0.404706 0.406102 0.407497 0.408893 0.410288 0.411684 0.413079 0.414475 0.415870 0.417266 0.418661 0.420057 0.421452 0.422848 0.424244 0.425639 0.427035 0.428430 0.429826 0.431221 0.432617 0.434012 0.435408 0.436803 0.438199 0.439594 0.440990 0.442386 0.443781 0.445177 0.446572 0.447968 0.449363 0.450759 0.452154 0.453550 0.454945 0.456341 0.457736 0.459132 0.460528 0.461923 0.463319 0.464714 0.466110 0.467505 0.468901 0.470296 0.471692 0.473087 0.474483 0.475878 0.477274 0.478669 0.480065 0.481461 0.482856 0.484252 0.485647 0.487043 0.488438 0.489834 0.491229 0.492625 0.494020 0.495416 0.496811 0.498207 0.499603 0.500998 0.502394 0.503789 0.505185
      -0.08319       -0.05099       -0.02407       -0.01446       -0.01041       -0.00691       -0.00563       -0.00411       -0.00309       -0.00243       -0.00168       -0.00137       -0.00078       -0.00047       -0.00021        0.00010        0.00026        0.00056        0.00068        0.00086        0.00100        0.00113        0.00127        0.00845        0.79192        0.76366       -0.02829       -0.27651       -0.69901       -1.05498       -0.90557       -0.48967        0.22681        0.57214        0.75638        0.61738        0.21023       -0.44997       -0.93818       -0.84586       -0.54284       -0.11159        0.23796        0.32859        0.15262       -0.35325       -0.68580       -0.53624       -0.12143        0.37949        0.52761        0.26197       -0.05261       -0.37721       -0.08701        0.28052        0.47729        0.31383       -0.02486       -0.25925        0.03341        0.33305        0.34379       -0.01854       -0.21696       -0.25162        0.12604        0.16804       -0.25001       -0.39537       -0.18366        0.08038        0.03085       -0.30868       -0.37833       -0.00294        0.14232       -0.07615       -0.24871       -0.03549        0.22118       -0.12946       -0.24794        0.01299        0.20271       -0.06258       -0.16336        0.07121        0.15799       -0.07784       -0.18374        0.22719        0.13412       -0.12974        0.05517        0.25238       -0.05367        0.00160        0.26845       -0.01865       -0.09582        0.14947       -0.03205       -0.16645        0.14370        0.06721       -0.13085        0.09935        0.05823       -0.16316        0.10929        0.03804       -0.10274        0.21077        0.01503       -0.05796        0.20218       -0.03755        0.03186        0.11332       -0.12567        0.01281        0.00366       -0.02175        0.02728       -0.09228        0.05725        0.05798       -0.03295        0.02727       -0.03425       -0.00647       -0.04235       -0.05625        0.04978       -0.03192       -0.05540       -0.03884       -0.00933       -0.01194        0.01369        0.04519       -0.00131        0.02427       -0.03440       -0.00079        0.04236        0.07855       -0.02534       -0.00289        0.04824        0.01116        0.00780       -0.01732        0.02825       -0.02170        0.00420       -0.03255       -0.03858        0.01141       -0.03350       -0.04856       -0.01337        0.01066       -0.00160       -0.03300        0.01745       -0.01065        0.01312       -0.00920        0.02204        0.01897        0.01897        0.00396       -0.01639        0.02289        0.03435        0.04317       -0.01523        0.01819        0.04087       -0.00572       -0.04181        0.05887        0.01671        0.03317       -0.02108       -0.00229        0.03268        0.01439       -0.04848       -0.04792       -0.04295        0.00515        0.04134        0.03037       -0.05160       -0.01242        0.00641        0.05089       -0.00012       -0.00353        0.01560       -0.02103        0.01775        0.02948       -0.02646       -0.01107       -0.01104       -0.03783       -0.02518        0.00794       -0.00209       -0.01613       -0.01267        0.01212        0.01350       -0.00865        0.02141       -0.03730        0.04089        0.00586       -0.00017        0.01070        0.07240        0.02099        0.00846        0.04586       -0.00709       -0.01438        0.00095        0.05479        0.02120       -0.00903       -0.00623       -0.05081        0.04430        0.03072       -0.00094       -0.00783       -0.01255       -0.03003        0.00209        0.01175       -0.05773       -0.01407       -0.01134        0.02799       -0.00469       -0.04016       -0.00877       -0.00638       -0.00977       -0.00397        0.03973       -0.02105        0.00529       -0.00910        0.00592        0.04446        0.04546        0.04683        0.03010        0.00533        0.01115       -0.00193        0.01256        0.03869        0.04690        0.01163        0.01086        0.00986        0.00083       -0.00318       -0.01760        0.00086       -0.04080       -0.01834       -0.02155       -0.02103       -0.04403        0.05223        0.02116       -0.01261        0.04769        0.05744       -0.00448        0.03587       -0.01034       -0.02492       -0.01981       -0.06839       -0.01553       -0.00160        0.01544       -0.07437       -0.08817       -0.01308       -0.00454        0.04461        0.00402        0.00107       -0.01911       -0.03071       -0.01983        0.01450        0.00006        0.06545        0.00967        0.01163        0.04255        0.02592        0.03532       -0.02400        0.00474        0.01483       -0.03314        0.00786        0.05272       -0.05721        0.02475        0.04239        0.07650       -0.06003        0.00583       -0.00825       -0.08360        0.04599        0.03535       -0.05756        0.01582        0.02230        0.07815        0.12205        0.01277       -0.03386       -0.05502       -0.11431        0.10710        0.06576       -0.04129        0.05898       -0.03372        0.03083       -0.00994        0.07440       -0.04604       -0.17207       -0.01970        0.01936        0.03384        0.07456       -0.06632       -0.04382       -0.12223       -0.10264        0.00508        0.03238        0.15769        0.12291        0.24570       -0.53548       -1.75347
-0.083194 -0.009216 -0.009019 -0.008689 -0.008227 -0.007634 -0.006908 -0.006051 -0.005062 -0.003941 -0.002824 -0.002322 -0.001772 -0.001175 -0.000530 -0.000018 0.000189 0.000408 0.000641 0.000806 0.000956 0.001114 0.135651 0.313674 0.439641 0.277023 0.107772 -0.231516 -0.620725 -0.760818 -0.766429 -0.436955 0.086004 0.417108 0.694746 0.504676 0.197901 -0.368888 -0.692832 -0.836527 -0.551779 -0.187775 0.161574 0.292882 0.093761 -0.242599 -0.574853 -0.551986 -0.168412 0.269071 0.463670 0.306081 -0.018358 -0.357119 -0.121758 0.214833 0.434193 0.359913 0.010811 -0.226734 -0.000836 0.283347 0.335122 0.078678 -0.226368 -0.266147 0.055949 0.169109 -0.156089 -0.395160 -0.238158 0.074210 0.118358 -0.247417 -0.394136 -0.094575 0.199689 -0.027011 -0.310277 -0.087946 0.192332 -0.044247 -0.285127 -0.064495 0.265654 -0.004711 -0.201235 0.049122 0.228079 -0.071230 -0.284660 0.214851 0.273551 -0.164577 -0.050090 0.334654 -0.009636 -0.103502 0.277330 0.134012 -0.241488 0.134211 0.126910 -0.353465 0.113387 0.255206 -0.249718 0.017869 0.266690 -0.336328 0.074581 0.241353 -0.305215 0.232952 0.192346 -0.302437 0.373404 -0.076877 -0.182458 0.438255 -0.306103 0.060492 0.156483 -0.290223 0.270955 -0.204370 -0.080546 0.199433 -0.172693 0.185610 -0.077001 -0.053696 0.058322 -0.155269 0.093768 -0.097355 -0.002205 -0.032497 -0.054739 0.075908 -0.075883 0.046396 0.013881 0.006746 -0.019800 0.020141 -0.033420 0.084478 0.029873 0.042263 0.016253 0.022487 -0.090323 0.024382 0.006238 0.045051 0.010180 -0.034795 -0.118142 0.006085 0.037832 -0.051943 -0.042239 -0.118776 0.034497 0.005124 -0.033468 0.040466 -0.018517 0.015746 -0.030073 0.033572 0.001915 -0.045959 0.047670 -0.048897 0.013681 -0.002068 -0.010301 0.026134 0.002953 -0.028657 -0.003416 0.001349 0.073060 0.013275 -0.036374 0.046005 -0.028732 0.042070 0.001476 -0.014336 -0.038469 -0.025782 0.064063 -0.006797 -0.051620 -0.026737 -0.043569 0.135916 0.001722 -0.066274 0.029355 -0.010655 0.025557 -0.044544 -0.037589 0.014277 -0.002188 -0.087884 0.014292 -0.079092 -0.040670 0.018825 -0.036237 0.056986 -0.003558 -0.081816 0.029740 0.011975 0.022998 0.055598 -0.074433 0.008572 0.009111 0.030951 0.017613 0.025236 0.022529 0.043182 -0.066260 -0.032291 0.032686 0.071597 -0.046152 0.016357 0.054935 0.013040 -0.007363 -0.027664 -0.006185 -0.022705 0.065737 0.016776 -0.097764 0.078097 0.003311 0.029728 -0.030336 0.012953 0.013538 0.013342 -0.067325 0.068063 0.040144 -0.014938 0.009797 -0.019995 -0.039267 0.090095 0.100590 0.075804 -0.039154 0.008070 0.064502 -0.054375 0.039200 0.032477 0.054478 0.065132 0.128491 0.006051 -0.020654 -0.086784 0.018491 0.033235 -0.065705 -0.019834 -0.054706 -0.009118 0.089809 -0.087042 -0.059746 0.048432 0.110284 0.074600 -0.007632 0.141770 -0.024899 -0.050744 -0.016720 0.054412 -0.056306 -0.077463 -0.004493 -0.112051 0.027561 -0.203699 -0.028771 -0.014142 0.067287 0.054257 -0.026999 -0.071158 -0.152836 0.098486 -0.003580 0.068378 -0.000261 -0.075275 -0.003163 0.135031 0.171548 0.101627 0.163583 0.120479 -0.044379 0.109141 -0.056438 0.026747 0.073848 -0.073816 -0.064099 -0.056874 -0.081187 0.020259 -0.002193 0.089002 -0.108480 0.099521 0.160133 0.007980 0.212365 0.024970 0.012819 0.116008 -0.074747 -0.153374 0.150728 0.110611 0.231023 -0.108237 -0.157082 0.210867 -0.143778 -0.038354 0.053819 -0.215275 0.196334 -0.156331 -0.459192 -0.062959 0.136467 0.257387 0.214785 0.261224 -0.383531 -0.440185 0.069746 -0.276097 0.109691 0.000000 0.205677
0.100000 0.104758 0.119016 0.142725 0.175776 0.217976 0.268997 0.328323 0.395185 0.468486 0.546724 0.627924 0.709566 0.788548 0.861172 0.923175 0.969825 0.996089 0.996889 0.967452 0.903756 0.803058 0.664479 0.489594 0.282976 0.052585 0.190070 0.430124 0.649998 0.830546 0.952744 0.999855 0.959909 0.828246 0.609723 0.320166 0.013447 0.354469 0.659977 0.886059 0.994545 0.960341 0.778089 0.466626 0.069734 0.347991 0.710478 0.943970 0.993107 0.836011 0.494362 0.034694 0.441457 0.818426 0.994888 0.913364 0.582225 0.081849 0.450296 0.855050 0.999738 0.825063 0.373925 0.211728 0.730756 0.990796 0.882659 0.432179 0.195895 0.751771 0.998376 0.816451 0.269816 0.406226 0.899804 0.966645 0.557880 0.137170 0.768510 0.998538 0.688096 0.008447 0.706977 1.000000 0.699331 0.030679 0.748156 0.995150 0.596215 0.202740 0.870654 0.940213 0.344779 0.504391 0.988469 0.733373 0.085584 0.843661 0.935520 0.269150 0.624203 0.998240 0.519286 0.415804 0.987585 0.670515 0.264918 0.958170 0.744149 0.190742 0.943313 0.757309 0.198791 0.954744 0.713695 0.288481 0.983591 0.602070 0.452319 0.999727 0.401607 0.667030 0.951647 0.096249 0.879624 0.774370 0.299726 0.997760 0.415961 0.709689 0.902345 0.111253 0.977326 0.504594 0.671049 0.905328 0.150365 0.991883 0.386334 0.792106 0.787766 0.409813 0.981981 0.032746 0.969799 0.435668 0.798537 0.739190 0.533067 0.923097 0.234281 0.996182 0.052414 0.983286 0.299849 0.914387 0.496777 0.817482 0.643057 0.715103 0.744913 0.623472 0.810891 0.553214 0.849130 0.510565 0.865639 0.498638 0.863410 0.518157 0.842058 0.567800 0.797866 0.643740 0.724287 0.738816 0.613030 0.841244 0.455986 0.933523 0.248178 0.992087 0.008075 0.988606 0.298521 0.894165 0.592649 0.686980 0.842343 0.363495 0.986278 0.049268 0.962847 0.485169 0.732604 0.841333 0.306017 0.999117 0.233755 0.866398 0.730255 0.432548 0.991090 0.187890 0.867533 0.758507 0.352655 0.999998 0.356939 0.737783 0.902672 0.051062 0.938844 0.691134 0.377783 0.999126 0.461611 0.600489 0.982302 0.272584 0.732122 0.942984 0.151004 0.795307 0.916706 0.106022 0.806704 0.919585 0.139309 0.769953 0.949938 0.249336 0.674525 0.988296 0.428396 0.499881 0.995968 0.653204 0.226359 0.916706 0.871878 0.144343 0.689378 0.996246 0.561267 0.279893 0.914652 0.902091 0.267540 0.543252 0.987240 0.785017 0.083209 0.665033 0.999162 0.729782 0.032789 0.677140 0.998275 0.764290 0.118510 0.584137 0.977438 0.871354 0.334213 0.359685 0.876324 0.982160 0.642878 0.023329 0.599730 0.963896 0.928609 0.522141 0.083439 0.650345 0.969744 0.935487 0.573045 0.019129 0.534202 0.907791 0.991131 0.770562 0.324320 0.209337 0.677057 0.954618 0.977205 0.750462 0.341885 0.142193 0.585937 0.891744 0.999996 0.897781 0.616392 0.219965 0.210793 0.595889 0.870511 0.994513 0.956296 0.771106 0.475269 0.117777 0.248481 0.574608 0.822096 0.966181 0.997111 0.919186 0.748155 0.507698 0.225867 0.068765 0.349969 0.595725 0.790053 0.922931 0.990437 0.993906 0.938928 0.834140 0.690039 0.517896 0.328900 0.133394 0.059614 0.242738 0.410418 0.558707 0.685213 0.788927 0.870135 0.929854 0.969897 0.992451 0.999970 0.995029 0.980172 0.957831 0.930265 0.899466 0.867308 0.835301 0.804768 0.776767 0.752230 0.731864 0.716125 0.705485 0.700150 0.700200 0.705633 0.716412 0.732156 0.752524 0.777021 0.804836 0.835173 0.866958 0.898872
1.000000 1.000000 1.000000 1.000000 1.000000 1.000000 1.000000 1.000000 1.000000 1.000000 1.000000 1.000000 1.000000 1.000000 1.000000 1.000000 1.000000 1.000000 1.000000 1.000000 1.000000 1.000000 1.000000 1.000000 -0.685414 -0.685414 -0.685414 -0.685414 -0.685414 -0.685414 -0.685414 -0.685414 -0.693015 -0.693015 -0.693015 -0.693015 -0.693015 -0.695578 -0.690064 -0.685457 -0.671518 -0.661608 -0.647876 -0.647075 -0.633171 -0.646668 -0.668775 -0.657597 -0.665608 -0.685030 -0.686344 -0.649805 -0.624538 -0.616524 -0.577792 -0.627077 -0.645495 -0.584849 -0.585724 -0.531967 -0.517128 -0.559801 -0.483609 -0.472515 -0.444625 -0.450403 -0.415879 -0.414113 -0.383496 -0.362824 -0.321918 -0.361523 -0.301830 -0.305024 -0.298401 -0.255702 -0.242679 -0.259204 -0.228364 -0.208198 -0.227097 -0.118971 -0.193414 -0.230882 -0.151533 -0.112935 -0.104296 -0.050407 -0.055479 -0.034427 0.049999 0.064578 0.095738 0.093145 0.159223 0.133544 0.210040 0.240860 0.253594 0.331953 0.326383 0.414389 0.459292 0.474432 0.522174 0.577378 0.666409 0.675153 0.678168 0.759826 0.745761 0.775466 0.815432 0.772904 0.763836 0.810404 0.810393 0.820355 0.838146 0.763120 0.749930 0.747279 0.689001 0.637043 0.610325 0.625720 0.594270 0.521806 0.544294 0.542339 0.416357 0.343485 0.320860 0.327291 0.240308 0.254730 0.268348 0.308856 0.141683 0.171244 0.185933 0.206149 0.331152 0.311656 0.287372 0.252357 0.234926 0.229234 0.229574 0.254433 0.285191 0.132628 0.098956 0.086729 0.153003 0.149626 0.163609 0.177350 0.085754 0.137453 0.130949 0.161950 0.197651 0.216825 0.232578 0.246825 0.273832 0.276756 0.247343 0.167219 0.132550 0.093807 0.034036 -0.038578 -0.096635 -0.135889 -0.119110 -0.102712 -0.095801 -0.060682 -0.049090 -0.014654 -0.054538 -0.017439 -0.030094 0.027176 0.070409 0.074116 0.062801 0.045080 0.053181 0.154195 0.086419 0.093626 0.109924 0.138681 0.125443 0.131993 -0.067791 0.121009 0.092116 0.086662 0.082730 0.071404 0.020059 -0.031277 -0.040198 0.010162 0.267023 0.030779 0.009806 0.084535 0.032814 0.098524 0.093703 0.073091 0.092759 0.129696 0.125935 0.060174 0.063959 0.035194 -0.008857 0.041230 0.028201 0.038104 0.055500 0.049030 0.030797 0.044127 0.059817 -0.023741 0.001760 0.025183 -0.013127 0.013909 0.018394 0.054614 0.039004 0.066571 0.094055 0.022022 0.052441 0.043939 -0.044048 -0.018372 0.014269 0.019992 0.095901 0.099737 0.031465 0.009894 0.065476 0.071358 0.025495 0.040258 0.046950 0.071441 0.041698 0.093493 -0.018165 0.013334 0.119477 0.118092 0.096049 0.066635 0.134698 0.118026 0.094353 0.150707 0.179335 0.141025 0.151217 0.191359 0.198665 0.159656 0.128142 0.141350 0.148178 0.157280 0.180076 0.141926 0.177606 0.186965 0.173711 0.176741 0.177249 0.214417 0.225295 0.209724 0.221428 0.224129 0.209722 0.239915 0.183279 0.171385 0.203113 0.205686 0.204178 0.229847 0.239031 0.174731 0.177939 0.257905 0.249479 0.256922 0.240431 0.239699 0.282681 0.191074 0.187380 0.293182 0.281308 0.282419 0.286949 0.286164 0.281283 0.278635 0.275863 0.275377 0.178643 0.178643 0.258936 0.257280 0.253864 0.251647 0.248233 0.249614 0.250217 0.246282 0.246282 0.246282 0.246282 0.248164 0.248164 0.248164 0.248164 0.248164 0.144202 0.144202 0.249201 0.249201 0.249201 0.249201 0.265118 0.265118 0.265118 0.265118 0.265118 0.266492 0.266492 0.266492 0.266492 0.266492 0.266977 0.266977 0.266977 0.266977 0.266977 0.256987 0.256987 0.256987 0.256987
0.000000 0.000000 0.000000 0.000000 0.000000 0.000000 0.000000 0.000000 0.000000 0.000000 0.000000 0.000000 0.000000 0.000000 0.000000 0.000000 0.000000 0.000000 0.000000 0.000000 0.000000 0.000000 0.000000 0.000000 0.328798 0.328798 0.328798 0.328798 0.328798 0.328798 0.328798 0.328798 0.384900 0.384900 0.384900 0.384900 0.384900 0.384900 0.384900 0.384900 0.384900 0.417029 0.417029 0.417029 0.417029 0.417029 0.417029 0.417029 0.400000 0.400000 0.400000 0.400000 0.400000 0.400000 0.400000 0.458831 0.458831 0.458831 0.458831 0.458831 0.417029 0.417029 0.417029 0.417029 0.417029 0.417029 0.436436 0.436436 0.436436 0.436436 0.436436 0.458831 0.458831 0.458831 0.458831 0.436436 0.436436 0.436436 0.436436 0.436436 0.436436 0.436436 0.436436 0.417029 0.417029 0.417029 0.417029 0.417029 0.417029 0.417029 0.417029 0.400000 0.400000 0.400000 0.400000 0.436436 0.436436 0.436436 0.436436 0.436436 0.436436 0.384900 0.384900 0.384900 0.384900 0.417029 0.417029 0.417029 0.417029 0.417029 0.417029 0.400000 0.400000 0.400000 0.400000 0.400000 0.400000 0.458831 0.458831 0.384900 0.384900 0.384900 0.384900 0.384900 0.384900 0.371391 0.371391 0.371391 0.436436 0.436436 0.371391 0.371391 0.371391 0.417029 0.417029 0.359211 0.359211 0.359211 0.400000 0.400000 0.400000 0.400000 0.348155 0.348155 0.348155 0.400000 0.400000 0.384900 0.384900 0.384900 0.384900 0.328798 0.328798 0.328798 0.371391 0.371391 0.371391 0.371391 0.371391 0.371391 0.359211 0.359211 0.359211 0.359211 0.359211 0.359211 0.359211 0.359211 0.348155 0.348155 0.348155 0.348155 0.348155 0.348155 0.338062 0.338062 0.338062 0.338062 0.338062 0.338062 0.328798 0.328798 0.400000 0.328798 0.328798 0.328798 0.328798 0.320256 0.320256 0.320256 0.320256 0.384900 0.312348 0.312348 0.312348 0.312348 0.312348 0.312348 0.371391 0.304997 0.304997 0.304997 0.304997 0.371391 0.298142 0.298142 0.298142 0.298142 0.359211 0.291730 0.291730 0.359211 0.291730 0.291730 0.348155 0.285714 0.285714 0.285714 0.285714 0.348155 0.280056 0.280056 0.338062 0.280056 0.280056 0.338062 0.274721 0.274721 0.338062 0.269680 0.269680 0.328798 0.269680 0.269680 0.328798 0.328798 0.264906 0.264906 0.320256 0.260378 0.260378 0.320256 0.260378 0.260378 0.312348 0.312348 0.256074 0.256074 0.312348 0.312348 0.251976 0.251976 0.304997 0.304997 0.248069 0.248069 0.304997 0.298142 0.244339 0.244339 0.298142 0.298142 0.240772 0.240772 0.291730 0.291730 0.237356 0.237356 0.291730 0.291730 0.285714 0.234082 0.234082 0.285714 0.285714 0.285714 0.230940 0.230940 0.280056 0.280056 0.280056 0.227921 0.227921 0.274721 0.274721 0.274721 0.274721 0.222222 0.222222 0.269680 0.269680 0.269680 0.269680 0.269680 0.216930 0.216930 0.264906 0.264906 0.264906 0.264906 0.260378 0.214423 0.214423 0.260378 0.260378 0.260378 0.256074 0.256074 0.256074 0.209657 0.209657 0.256074 0.251976 0.251976 0.251976 0.251976 0.251976 0.248069 0.248069 0.248069 0.203069 0.203069 0.248069 0.244339 0.244339 0.244339 0.244339 0.244339 0.240772 0.240772 0.240772 0.240772 0.240772 0.237356 0.237356 0.237356 0.237356 0.237356 0.191565 0.191565 0.234082 0.234082 0.234082 0.234082 0.230940 0.230940 0.230940 0.230940 0.230940 0.227921 0.227921 0.227921 0.227921 0.227921 0.225018 0.225018 0.225018 0.225018 0.225018 0.222222 0.222222 0.222222 0.222222
