# Output from CTFFind version 4.1.14, run on 2024-08-30 16:05:31
# Input file: CtfFind/job005/Movies/20170629_00043_frameImage_PS.mrc ; Number of micrographs: 1
# Pixel size: 1.400 Angstroms ; acceleration voltage: 200.0 keV ; spherical aberration: 1.40 mm ; amplitude contrast: 0.10
# Box size: 512 pixels ; min. res.: 30.0 Angstroms ; max. res.: 5.0 Angstroms ; min. def.: 5000.0 um; max. def. 50000.0 um; num. frames averaged: 1
# 6 lines per micrograph: #1 - spatial frequency (1/Angstroms); #2 - 1D rotational average of spectrum (assuming no astigmatism); #3 - 1D rotational average of spectrum; #4 - CTF fit; #5 - cross-correlation between spectrum and CTF fit; #6 - 2sigma of expected cross correlation of noise
0.000000 0.001396 0.002791 0.004187 0.005582 0.006978 0.008373 0.009769 0.011164 0.012560 0.013955 0.015351 0.016746 0.018142 0.019538 0.020933 0.022329 0.023724 0.025120 0.026515 0.027911 0.029306 0.030702 0.032097 0.033493 0.034888 0.036284 0.037680 0.039075 0.040471 0.041866 0.043262 0.044657 0.046053 0.047448 0.048844 0.050239 0.051635 0.053030 0.054426 0.055822 0.057217 0.058613 0.060008 0.061404 0.062799 0.064195 0.065590 0.066986 0.068381 0.069777 0.071172 0.072568 0.073964 0.075359 0.076755 0.078150 0.079546 0.080941 0.082337 0.083732 0.085128 0.086523 0.087919 0.089314 0.090710 0.092106 0.093501 0.094897 0.096292 0.097688 0.099083 0.100479 0.101874 0.103270 0.104665 0.106061 0.107456 0.108852 0.110247 0.111643 0.113039 0.114434 0.115830 0.117225 0.118621 0.120016 0.121412 0.122807 0.124203 0.125598 0.126994 0.128389 0.129785 0.131181 0.132576 0.133972 0.135367 0.136763 0.138158 0.139554 0.140949 0.142345 0.143740 0.145136 0.146531 0.147927 0.149323 0.150718 0.152114 0.153509 0.154905 0.156300 0.157696 0.159091 0.160487 0.161882 0.163278 0.164673 0.166069 0.167465 0.168860 0.170256 0.171651 0.173047 0.174442 0.175838 0.177233 0.178629 0.180024 0.181420 0.182815 0.184211 0.185607 0.187002 0.188398 0.189793 0.191189 0.192584 0.193980 0.195375 0.196771 0.198166 0.199562 0.200957 0.202353 0.203749 0.205144 0.206540 0.207935 0.209331 0.210726 0.212122 0.213517 0.214913 0.216308 0.217704 0.219099 0.220495 0.221891 0.223286 0.224682 0.226077 0.227473 0.228868 0.230264 0.231659 0.233055 0.234450 0.235846 0.237241 0.238637 0.240033 0.241428 0.242824 0.244219 0.245615 0.247010 0.248406 0.249801 0.251197 0.252592 0.253988 0.255383 0.256779 0.258175 0.259570 0.260966 0.262361 0.263757 0.265152 0.266548 0.267943 0.269339 0.270734 0.272130 0.273525 0.274921 0.276317 0.277712 0.279108 0.280503 0.281899 0.283294 0.284690 0.286085 0.287481 0.288876 0.290272 0.291667 0.293063 0.294458 0.295854 0.297250 0.298645 0.300041 0.301436 0.302832 0.304227 0.305623 0.307018 0.308414 0.309809 0.311205 0.312600 0.313996 0.315392 0.316787 0.318183 0.319578 0.320974 0.322369 0.323765 0.325160 0.326556 0.327951 0.329347 0.330742 0.332138 0.333534 0.334929 0.336325 0.337720 0.339116 0.340511 0.341907 0.343302 0.344698 0.346093 0.347489 0.348884 0.350280 0.351676 0.353071 0.354467 0.355862 0.357258 0.358653 0.360049 0.361444 0.362840 0.364235 0.365631 0.367026 0.368422 0.369818 0.371213 0.372609 0.374004 0.375400 0.376795 0.378191 0.379586 0.380982 0.382377 0.383773 0.385168 0.386564 0.387960 0.389355 0.390751 0.392146 0.393542 0.394937 0.396333 0.397728 0.399124 0.400519 0.401915 0.403310 0.404706 0.406102 0.407497 0.408893 0.410288 0.411684 0.413079 0.414475 0.415870 0.417266 0.418661 0.420057 0.421452 0.422848 0.424244 0.425639 0.427035 0.428430 0.429826 0.431221 0.432617 0.434012 0.435408 0.436803 0.438199 0.439594 0.440990 0.442386 0.443781 0.445177 0.446572 0.447968 0.449363 0.450759 0.452154 0.453550 0.454945 0.456341 0.457736 0.459132 0.460528 0.461923 0.463319 0.464714 0.466110 0.467505 0.468901 0.470296 0.471692 0.473087 0.474483 0.475878 0.477274 0.478669 0.480065 0.481461 0.482856 0.484252 0.485647 0.487043 0.488438 0.489834 0.491229 0.492625 0.494020 0.495416 0.496811 0.498207 0.499603 0.500998 0.502394 0.503789 0.505185
      -0.32656       -0.22830       -0.14616       -0.11683       -0.10446       -0.09380       -0.08987       -0.08525       -0.08214       -0.08013       -0.07781       -0.07687       -0.07508       -0.07413       -0.07334       -0.07240       -0.07190       -0.07098       -0.07064       -0.07009       -0.06965       -0.06926       -0.06883       -0.06728       -0.04593       -0.69354       -1.03618       -1.07001       -0.84144       -0.12222        0.60829        1.07397        0.81296        0.14368       -0.64893       -0.98965       -0.96961       -0.58376        0.10558        0.43963        0.31503       -0.27318       -0.88720       -0.94256       -0.43306        0.17729        0.32536       -0.11212       -0.61460       -0.55763       -0.09599        0.24946        0.27064       -0.11167       -0.52600       -0.21948        0.33527        0.38295       -0.09773       -0.35614       -0.06591        0.39830        0.15070       -0.40212       -0.31947        0.16063        0.24026       -0.24510       -0.33556        0.02217        0.04509       -0.47398       -0.45973        0.00793       -0.10733       -0.51547       -0.23671        0.10564       -0.28750       -0.37205        0.14908        0.03111       -0.36571        0.04099        0.15740       -0.25885        0.02358        0.15079       -0.20231       -0.03773        0.14329       -0.19228       -0.07465        0.12270       -0.18020        0.06606        0.07376       -0.11956        0.08922       -0.02301       -0.09167        0.13575       -0.08066       -0.05589        0.00268       -0.13082        0.01798       -0.02487       -0.07367       -0.06184       -0.12089       -0.04135       -0.02408       -0.00211       -0.04138       -0.05392       -0.03063       -0.04139       -0.06875       -0.05578       -0.07254        0.00520       -0.06347       -0.09188       -0.04804       -0.07028       -0.05862       -0.06810       -0.07647       -0.08398       -0.12692       -0.07559       -0.08891       -0.03325       -0.05854       -0.05690       -0.02305       -0.02920        0.01613       -0.05505       -0.04788       -0.07729       -0.05902       -0.10616       -0.05579       -0.05283       -0.07519       -0.08785       -0.09911       -0.10374       -0.08534       -0.04775       -0.05200       -0.10814       -0.11501       -0.02184       -0.07162       -0.06769       -0.05897       -0.05509       -0.01190       -0.07886       -0.08662       -0.06189       -0.08187       -0.02108       -0.03778       -0.08364       -0.12157       -0.07422       -0.04012       -0.07776       -0.07443       -0.13818       -0.10102       -0.04431       -0.03538       -0.08066       -0.10824       -0.09990       -0.08473       -0.06876       -0.10127       -0.05754       -0.05793       -0.08773       -0.06533       -0.01514       -0.04365       -0.05764       -0.05721       -0.00002       -0.02597       -0.05385       -0.10909       -0.08628       -0.07327       -0.02486       -0.05333       -0.05886       -0.06717       -0.08315       -0.04422       -0.04319       -0.05158       -0.02669       -0.06009       -0.09126       -0.06160       -0.07559       -0.03753       -0.02370       -0.08245       -0.01325       -0.04860       -0.03725       -0.02090       -0.02421       -0.03684       -0.07784       -0.10462       -0.06822       -0.09191       -0.04850       -0.05738       -0.08403       -0.04138       -0.06611       -0.07402       -0.09913       -0.09280       -0.03474       -0.05246       -0.08771       -0.03824       -0.05240       -0.03638       -0.08852       -0.08435       -0.04246       -0.03614       -0.07178       -0.06942       -0.04256       -0.10417       -0.08258       -0.05631       -0.06701       -0.07861       -0.05970       -0.07731       -0.05788       -0.04673       -0.07821       -0.05788       -0.05348       -0.05705       -0.05476       -0.02576       -0.07489       -0.05295       -0.08344       -0.05248       -0.05394       -0.04658       -0.08075       -0.03910       -0.06006       -0.05213       -0.06309       -0.06040       -0.08518       -0.09028       -0.04212       -0.08048       -0.05239       -0.07972       -0.10898       -0.07805       -0.07772       -0.04061       -0.00560        0.00861        0.00468       -0.04760       -0.13430       -0.09665       -0.05307       -0.06056       -0.07760       -0.08285       -0.07463       -0.06494       -0.08691       -0.13121       -0.07791       -0.03509       -0.08974       -0.09504       -0.06925       -0.06816       -0.06005       -0.05288       -0.06106        0.00737       -0.12675       -0.07162       -0.03622       -0.08899       -0.10976       -0.06878       -0.03570       -0.02107       -0.07197       -0.03886       -0.16731       -0.08417       -0.07823        0.00193       -0.02021       -0.09243       -0.01300        0.05464       -0.09087       -0.01439       -0.03132       -0.16506       -0.01218       -0.04839        0.02680       -0.13302        0.04932       -0.02187       -0.16863       -0.18450       -0.09053       -0.16254       -0.11460       -0.00182       -0.01510       -0.03634        0.02793       -0.14046       -0.04965        0.04983        0.01121       -0.05390       -0.00818       -0.07293       -0.14095       -0.00641       -0.03059       -0.03949        0.06740       -0.03372       -0.07042       -0.30202       -0.32298       -0.22237        0.08614        0.54908        0.04602       -0.27487
-0.326557 -0.100683 -0.100093 -0.099108 -0.097730 -0.095959 -0.093793 -0.091234 -0.088281 -0.084935 -0.081195 -0.079539 -0.077998 -0.076324 -0.074516 -0.072780 -0.072140 -0.071459 -0.070736 -0.070067 -0.069431 -0.068762 -0.106839 -0.172777 -0.241645 -0.541590 -0.856094 -0.831266 -0.599427 -0.192150 0.418632 0.711828 0.617473 0.193705 -0.484045 -0.781323 -0.920527 -0.511228 -0.081690 0.368912 0.191605 -0.192938 -0.782297 -0.814024 -0.479131 0.017727 0.320303 -0.100485 -0.461655 -0.513951 -0.196522 0.217967 0.270609 -0.075394 -0.408680 -0.267134 0.222334 0.355434 -0.019031 -0.290678 -0.090760 0.267966 0.199420 -0.277557 -0.340915 0.098430 0.273903 -0.173486 -0.442904 -0.036238 0.082691 -0.355578 -0.556327 -0.034608 0.017113 -0.468098 -0.388618 0.236037 -0.177231 -0.487789 0.134013 0.138175 -0.409351 -0.092511 0.252095 -0.244519 -0.158614 0.346981 -0.154122 -0.252760 0.307574 -0.179846 -0.275490 0.347367 -0.202825 -0.135813 0.298882 -0.276632 0.065670 0.163430 -0.297805 0.303715 -0.057130 -0.174251 0.202188 -0.302562 0.043425 0.058435 -0.206407 0.071839 -0.251887 0.020353 -0.047404 -0.037255 -0.042029 -0.060608 0.047784 -0.092070 -0.006036 -0.122391 -0.063717 -0.036133 -0.019434 -0.095800 -0.092301 -0.042400 -0.053617 -0.026449 -0.065069 -0.165002 -0.044470 -0.106678 -0.053440 -0.093953 -0.063859 -0.125764 0.005848 -0.001157 0.040119 -0.019263 -0.026274 -0.118792 -0.087726 -0.099931 0.066274 -0.118788 -0.074374 -0.048585 -0.042671 -0.149363 -0.074265 -0.039041 -0.108942 -0.075381 -0.120938 -0.060603 -0.044078 -0.056107 -0.104372 -0.094524 0.028669 -0.099316 -0.171279 -0.069626 -0.076247 -0.089133 -0.012583 -0.075446 -0.082043 -0.123731 -0.094852 -0.063616 -0.049892 -0.113516 -0.147567 -0.174483 -0.016077 -0.044854 -0.096678 -0.113517 -0.042499 -0.100858 -0.118064 -0.057316 -0.038049 -0.100785 -0.107028 -0.045463 -0.089489 -0.044173 -0.059429 -0.085580 0.011832 -0.028857 -0.129416 -0.097867 -0.131926 -0.086169 -0.025303 -0.020189 -0.103706 -0.022122 -0.102497 -0.050054 0.021971 -0.025497 -0.041928 -0.093128 -0.053762 -0.113896 0.003156 -0.034782 -0.051208 -0.053654 -0.080164 -0.013262 -0.062502 0.061213 -0.072993 -0.008125 -0.035922 -0.088934 -0.060541 -0.110561 -0.022113 -0.066545 -0.083136 -0.023168 -0.033099 -0.159414 -0.095543 -0.072065 -0.056012 -0.096212 -0.046028 -0.102683 -0.106375 -0.086208 -0.115653 -0.067235 -0.127602 0.031909 -0.070879 -0.072095 -0.146432 -0.089735 -0.021284 -0.113689 -0.005758 -0.127932 -0.111437 -0.060405 0.012838 -0.051008 -0.051134 -0.017290 -0.073254 -0.049697 -0.061300 -0.121030 -0.070834 -0.058447 -0.123904 0.011508 -0.102246 -0.059026 -0.081567 -0.071977 -0.036714 -0.096254 -0.020528 -0.033938 -0.065995 -0.132150 -0.028015 0.001375 -0.089452 -0.097985 -0.118890 -0.145918 -0.018332 -0.091318 0.160946 -0.098410 -0.016506 -0.045099 -0.002788 -0.083856 -0.017111 -0.005120 -0.035402 -0.168120 -0.054460 -0.037920 -0.120879 -0.151717 -0.074329 -0.127738 0.005152 -0.143695 -0.092146 -0.106127 -0.099680 0.015873 -0.043053 -0.048847 -0.055288 -0.068480 -0.203083 -0.065915 -0.130048 0.086537 -0.025148 -0.227286 -0.090536 -0.111295 0.019448 -0.257932 0.091695 -0.049376 -0.098562 0.028964 -0.110216 -0.206647 0.040020 -0.116195 -0.003499 0.092912 -0.140390 0.292243 -0.146764 0.014560 -0.284954 -0.038545 -0.203723 -0.244771 -0.116562 0.023946 0.143194 -0.215107 0.045242 -0.008282 -0.151621 -0.058104 -0.122385 -0.215490 0.085251 -0.071217 0.092047 -0.017801 0.201369 -0.105260 0.248201 0.309568 -0.118143 0.026040 -0.003589 0.075429 -0.260887 -0.248075 0.139088 0.176231 0.000000
0.100000 0.105967 0.123842 0.153544 0.194887 0.247528 0.310872 0.383967 0.465379 0.553060 0.644217 0.735199 0.821432 0.897412 0.956807 0.992683 0.997896 0.965663 0.890328 0.768284 0.599003 0.386067 0.138041 0.131009 0.401584 0.649626 0.848384 0.971326 0.995975 0.908321 0.707163 0.407507 0.041972 0.340769 0.681224 0.918041 0.999839 0.897997 0.617523 0.202598 0.266292 0.685339 0.949790 0.981771 0.756622 0.319055 0.218845 0.701826 0.975117 0.936704 0.580943 0.014719 0.566624 0.942982 0.954829 0.577861 0.048805 0.663660 0.987814 0.855391 0.308481 0.399574 0.911796 0.947535 0.466186 0.283473 0.878032 0.956164 0.448815 0.347273 0.927130 0.896131 0.252360 0.575040 0.996923 0.687224 0.145326 0.872967 0.913998 0.212192 0.672289 0.991625 0.449666 0.497229 0.998663 0.574459 0.399073 0.992077 0.605625 0.396345 0.995650 0.549937 0.489398 0.998935 0.396062 0.660921 0.957564 0.125125 0.862088 0.798948 0.259947 0.994230 0.449395 0.687422 0.911866 0.099699 0.977731 0.488967 0.697734 0.879313 0.230252 0.999802 0.257392 0.882824 0.648632 0.613085 0.893056 0.281383 0.993332 0.042357 0.982285 0.317290 0.902405 0.528059 0.792804 0.676301 0.683457 0.772100 0.594439 0.827464 0.537609 0.852148 0.518896 0.851416 0.539970 0.825111 0.598876 0.767734 0.689365 0.669380 0.799174 0.518153 0.907785 0.304362 0.984890 0.027152 0.991379 0.297067 0.885376 0.626477 0.635455 0.890761 0.240928 0.999995 0.245929 0.871863 0.708066 0.477209 0.980206 0.110249 0.908189 0.692411 0.445223 0.994463 0.259431 0.801065 0.858626 0.135372 0.961551 0.647053 0.416863 0.999827 0.460675 0.581326 0.990609 0.350015 0.649528 0.982150 0.333513 0.636555 0.990524 0.413174 0.539346 0.999855 0.577105 0.339132 0.962409 0.788020 0.019238 0.804383 0.964362 0.399050 0.453447 0.973559 0.809306 0.095953 0.673834 0.999973 0.692825 0.035915 0.735142 0.999433 0.696072 0.014000 0.667252 0.994273 0.816911 0.243030 0.438328 0.909311 0.969554 0.611637 0.004114 0.596054 0.955103 0.949440 0.599254 0.044937 0.515340 0.898570 0.993997 0.788603 0.358939 0.162351 0.630382 0.928302 0.993326 0.824788 0.475581 0.032584 0.407098 0.757823 0.960695 0.990618 0.855456 0.589404 0.242897 0.128188 0.471768 0.746603 0.925936 0.998330 0.966232 0.843041 0.649271 0.409054 0.146754 0.115538 0.359651 0.571976 0.743939 0.871357 0.953896 0.994193 0.996944 0.968105 0.914176 0.841672 0.756667 0.664641 0.570178 0.477131 0.388475 0.306421 0.232688 0.168369 0.114095 0.070350 0.037357 0.015158 0.003845 0.003366 0.013689 0.034840 0.066789 0.109444 0.162567 0.225760 0.298257 0.379118 0.466760 0.558947 0.652857 0.744881 0.830573 0.904653 0.961324 0.994266 0.997157 0.964126 0.890376 0.772985 0.611752 0.409889 0.174899 0.081318 0.342183 0.587277 0.793636 0.937854 0.999025 0.961974 0.820778 0.581721 0.265088 0.094548 0.451311 0.752821 0.948015 0.996707 0.879123 0.603581 0.209820 0.233346 0.638836 0.917158 0.997663 0.848765 0.492091 0.004899 0.492541 0.865070 0.999884 0.843888 0.428667 0.128293 0.652401 0.964384 0.944398 0.583240 0.000588 0.592486 0.957444 0.935425 0.518489 0.129185 0.727294 0.998115 0.799821 0.209959 0.491718 0.948937 0.911025 0.379865 0.367755 0.913998 0.932803 0.394455 0.390556 0.938437 0.889689 0.256829 0.554077 0.992005 0.738107 0.046806 0.803956 0.966332 0.392601 0.491266 0.991530 0.691829 0.181872
1.000000 1.000000 1.000000 1.000000 1.000000 1.000000 1.000000 1.000000 1.000000 1.000000 1.000000 1.000000 1.000000 1.000000 1.000000 1.000000 1.000000 1.000000 1.000000 1.000000 1.000000 1.000000 1.000000 1.000000 -0.789076 -0.789076 -0.789076 -0.789076 -0.819442 -0.819442 -0.819442 -0.819442 -0.819442 -0.819442 -0.819442 -0.838303 -0.828946 -0.823936 -0.817920 -0.812157 -0.805768 -0.813636 -0.829228 -0.827461 -0.823115 -0.781743 -0.766663 -0.715795 -0.737098 -0.731823 -0.715340 -0.658847 -0.667959 -0.542406 -0.497327 -0.524011 -0.434625 -0.400502 -0.340066 -0.303628 -0.303518 -0.120818 -0.131283 -0.029449 0.037343 0.102521 0.187617 0.278116 0.273876 0.343064 0.402292 0.431205 0.521126 0.486873 0.594328 0.662258 0.640834 0.690081 0.705916 0.730575 0.728408 0.746012 0.782491 0.768001 0.806301 0.793610 0.833950 0.852054 0.853023 0.871345 0.873763 0.890224 0.897028 0.898379 0.887194 0.811604 0.732709 0.725561 0.729173 0.756460 0.753380 0.716069 0.719295 0.717686 0.679916 0.672540 0.670533 0.605817 0.590618 0.608975 0.590099 0.543744 0.498896 0.491096 0.462755 0.431791 0.423317 0.380851 0.335155 0.329390 0.270478 0.394502 0.320919 0.277129 0.155477 0.085542 0.108651 0.105228 0.118754 0.079884 0.040023 0.047356 0.030681 -0.034877 0.059202 0.071061 0.017215 0.053662 0.086255 0.058700 0.100835 0.123962 0.113046 0.094008 0.146368 0.258279 0.237252 0.272797 0.246922 0.270798 0.235342 0.258014 0.245850 0.283878 0.382313 0.282942 0.307156 0.281974 0.282340 0.286252 0.222171 0.227197 0.189784 0.222865 0.183674 0.221697 0.209721 0.132932 0.191514 0.210714 0.144418 0.218423 0.120227 0.087382 0.097545 0.039710 0.117787 0.095913 -0.006201 -0.029495 -0.030245 0.019017 0.004590 -0.093816 -0.104267 -0.106088 -0.120529 -0.119867 -0.103348 -0.088201 -0.081816 -0.071136 -0.105408 -0.077071 -0.072598 -0.131744 -0.095630 -0.053464 -0.023916 -0.117258 -0.043326 -0.038783 -0.064614 -0.087443 -0.080709 -0.010310 -0.018312 -0.078628 -0.109588 0.008813 0.007396 -0.071983 -0.044453 -0.022301 0.014614 0.010836 -0.053658 -0.020944 -0.042470 0.042660 0.027302 0.155371 0.156830 0.149085 0.156617 0.073937 0.078550 0.198623 0.206108 0.193368 0.238947 0.257278 0.086801 0.181790 0.244193 0.235437 0.231247 0.240938 0.253312 0.266699 0.273693 0.236164 0.246289 0.277582 0.249195 0.261758 0.264397 0.271006 0.270986 0.270679 0.280342 0.283275 0.293514 0.267441 0.274773 0.312147 0.309210 0.297960 0.288879 0.337369 0.314551 0.314319 0.296814 0.298801 0.298468 0.297981 0.298209 0.300225 0.298889 0.297867 0.297527 0.272590 0.260061 0.267292 0.273742 0.276231 0.275941 0.278248 0.267467 0.260155 0.258005 0.260066 0.263566 0.259927 0.256888 0.210800 0.218585 0.220022 0.252319 0.251503 0.253072 0.255464 0.258868 0.303313 0.297103 0.296926 0.276141 0.267286 0.258477 0.256689 0.255995 0.291228 0.284597 0.284590 0.252584 0.238592 0.237414 0.221364 0.211229 0.206898 0.164485 0.152709 0.141938 0.140613 0.175976 0.168782 0.085740 0.076509 0.074234 0.071468 0.100151 0.097277 0.110855 0.110855 0.110855 0.110855 0.110855 0.120960 0.120960 0.120960 0.120960 0.132429 0.132429 0.132429 0.132429 0.143867 0.143867 0.143867 0.143867 0.154556 0.154556 0.154556 0.154556 0.164207 0.164207 0.164207 0.164207 0.172672 0.172672 0.172672 0.172672 0.179709 0.179709 0.179709 0.179709 0.184809 0.184809 0.184809 0.184809 0.187090 0.187090 0.187090 0.187090
0.000000 0.000000 0.000000 0.000000 0.000000 0.000000 0.000000 0.000000 0.000000 0.000000 0.000000 0.000000 0.000000 0.000000 0.000000 0.000000 0.000000 0.000000 0.000000 0.000000 0.000000 0.000000 0.000000 0.000000 0.359211 0.359211 0.359211 0.359211 0.417029 0.417029 0.417029 0.417029 0.417029 0.417029 0.417029 0.417029 0.417029 0.417029 0.417029 0.417029 0.417029 0.417029 0.417029 0.436436 0.436436 0.436436 0.436436 0.436436 0.436436 0.458831 0.458831 0.458831 0.458831 0.458831 0.436436 0.436436 0.436436 0.436436 0.436436 0.458831 0.458831 0.458831 0.458831 0.458831 0.458831 0.458831 0.458831 0.436436 0.436436 0.436436 0.436436 0.436436 0.436436 0.436436 0.436436 0.458831 0.458831 0.458831 0.458831 0.458831 0.458831 0.400000 0.400000 0.400000 0.400000 0.436436 0.436436 0.436436 0.436436 0.436436 0.436436 0.458831 0.458831 0.417029 0.417029 0.417029 0.417029 0.417029 0.417029 0.400000 0.400000 0.400000 0.458831 0.458831 0.400000 0.400000 0.400000 0.458831 0.458831 0.384900 0.384900 0.384900 0.436436 0.436436 0.436436 0.436436 0.417029 0.417029 0.359211 0.359211 0.359211 0.417029 0.417029 0.400000 0.400000 0.400000 0.400000 0.400000 0.400000 0.400000 0.400000 0.384900 0.384900 0.384900 0.384900 0.384900 0.384900 0.371391 0.371391 0.371391 0.371391 0.371391 0.371391 0.359211 0.359211 0.436436 0.359211 0.359211 0.359211 0.359211 0.348155 0.348155 0.348155 0.348155 0.417029 0.338062 0.338062 0.338062 0.338062 0.417029 0.328798 0.328798 0.328798 0.328798 0.400000 0.328798 0.328798 0.400000 0.320256 0.320256 0.384900 0.312348 0.312348 0.312348 0.312348 0.384900 0.304997 0.304997 0.371391 0.304997 0.304997 0.371391 0.371391 0.298142 0.298142 0.359211 0.291730 0.291730 0.359211 0.291730 0.291730 0.348155 0.348155 0.285714 0.285714 0.348155 0.348155 0.280056 0.280056 0.338062 0.274721 0.274721 0.338062 0.338062 0.328798 0.269680 0.269680 0.328798 0.328798 0.264906 0.264906 0.320256 0.320256 0.320256 0.260378 0.260378 0.320256 0.312348 0.312348 0.256074 0.256074 0.312348 0.312348 0.304997 0.304997 0.248069 0.248069 0.304997 0.304997 0.298142 0.298142 0.298142 0.244339 0.244339 0.298142 0.291730 0.291730 0.291730 0.291730 0.291730 0.285714 0.234082 0.234082 0.285714 0.285714 0.285714 0.280056 0.280056 0.280056 0.280056 0.280056 0.274721 0.274721 0.225018 0.225018 0.274721 0.274721 0.269680 0.269680 0.269680 0.269680 0.269680 0.264906 0.264906 0.264906 0.264906 0.264906 0.260378 0.260378 0.260378 0.260378 0.260378 0.256074 0.256074 0.256074 0.256074 0.256074 0.251976 0.251976 0.251976 0.251976 0.251976 0.248069 0.248069 0.248069 0.248069 0.248069 0.244339 0.244339 0.244339 0.244339 0.240772 0.240772 0.240772 0.240772 0.240772 0.237356 0.237356 0.237356 0.237356 0.234082 0.234082 0.234082 0.234082 0.234082 0.230940 0.230940 0.230940 0.230940 0.227921 0.227921 0.227921 0.227921 0.227921 0.225018 0.225018 0.225018 0.225018 0.222222 0.222222 0.222222 0.222222 0.219529 0.219529 0.219529 0.219529 0.219529 0.216930 0.216930 0.216930 0.216930 0.214423 0.214423 0.214423 0.214423 0.212000 0.212000 0.212000 0.212000 0.209657 0.209657 0.209657 0.209657 0.207390 0.207390 0.207390 0.207390 0.205196 0.205196 0.205196 0.205196 0.203069 0.203069 0.203069 0.203069 0.201008 0.201008 0.201008 0.201008 0.199007 0.199007 0.199007 0.199007
