# Output from CTFFind version 4.1.14, run on 2024-08-30 16:05:32
# Input file: CtfFind/job005/Movies/20170629_00039_frameImage_PS.mrc ; Number of micrographs: 1
# Pixel size: 1.400 Angstroms ; acceleration voltage: 200.0 keV ; spherical aberration: 1.40 mm ; amplitude contrast: 0.10
# Box size: 512 pixels ; min. res.: 30.0 Angstroms ; max. res.: 5.0 Angstroms ; min. def.: 5000.0 um; max. def. 50000.0 um; num. frames averaged: 1
# 6 lines per micrograph: #1 - spatial frequency (1/Angstroms); #2 - 1D rotational average of spectrum (assuming no astigmatism); #3 - 1D rotational average of spectrum; #4 - CTF fit; #5 - cross-correlation between spectrum and CTF fit; #6 - 2sigma of expected cross correlation of noise
0.000000 0.001396 0.002791 0.004187 0.005582 0.006978 0.008373 0.009769 0.011164 0.012560 0.013955 0.015351 0.016746 0.018142 0.019538 0.020933 0.022329 0.023724 0.025120 0.026515 0.027911 0.029306 0.030702 0.032097 0.033493 0.034888 0.036284 0.037680 0.039075 0.040471 0.041866 0.043262 0.044657 0.046053 0.047448 0.048844 0.050239 0.051635 0.053030 0.054426 0.055822 0.057217 0.058613 0.060008 0.061404 0.062799 0.064195 0.065590 0.066986 0.068381 0.069777 0.071172 0.072568 0.073964 0.075359 0.076755 0.078150 0.079546 0.080941 0.082337 0.083732 0.085128 0.086523 0.087919 0.089314 0.090710 0.092106 0.093501 0.094897 0.096292 0.097688 0.099083 0.100479 0.101874 0.103270 0.104665 0.106061 0.107456 0.108852 0.110247 0.111643 0.113039 0.114434 0.115830 0.117225 0.118621 0.120016 0.121412 0.122807 0.124203 0.125598 0.126994 0.128389 0.129785 0.131181 0.132576 0.133972 0.135367 0.136763 0.138158 0.139554 0.140949 0.142345 0.143740 0.145136 0.146531 0.147927 0.149323 0.150718 0.152114 0.153509 0.154905 0.156300 0.157696 0.159091 0.160487 0.161882 0.163278 0.164673 0.166069 0.167465 0.168860 0.170256 0.171651 0.173047 0.174442 0.175838 0.177233 0.178629 0.180024 0.181420 0.182815 0.184211 0.185607 0.187002 0.188398 0.189793 0.191189 0.192584 0.193980 0.195375 0.196771 0.198166 0.199562 0.200957 0.202353 0.203749 0.205144 0.206540 0.207935 0.209331 0.210726 0.212122 0.213517 0.214913 0.216308 0.217704 0.219099 0.220495 0.221891 0.223286 0.224682 0.226077 0.227473 0.228868 0.230264 0.231659 0.233055 0.234450 0.235846 0.237241 0.238637 0.240033 0.241428 0.242824 0.244219 0.245615 0.247010 0.248406 0.249801 0.251197 0.252592 0.253988 0.255383 0.256779 0.258175 0.259570 0.260966 0.262361 0.263757 0.265152 0.266548 0.267943 0.269339 0.270734 0.272130 0.273525 0.274921 0.276317 0.277712 0.279108 0.280503 0.281899 0.283294 0.284690 0.286085 0.287481 0.288876 0.290272 0.291667 0.293063 0.294458 0.295854 0.297250 0.298645 0.300041 0.301436 0.302832 0.304227 0.305623 0.307018 0.308414 0.309809 0.311205 0.312600 0.313996 0.315392 0.316787 0.318183 0.319578 0.320974 0.322369 0.323765 0.325160 0.326556 0.327951 0.329347 0.330742 0.332138 0.333534 0.334929 0.336325 0.337720 0.339116 0.340511 0.341907 0.343302 0.344698 0.346093 0.347489 0.348884 0.350280 0.351676 0.353071 0.354467 0.355862 0.357258 0.358653 0.360049 0.361444 0.362840 0.364235 0.365631 0.367026 0.368422 0.369818 0.371213 0.372609 0.374004 0.375400 0.376795 0.378191 0.379586 0.380982 0.382377 0.383773 0.385168 0.386564 0.387960 0.389355 0.390751 0.392146 0.393542 0.394937 0.396333 0.397728 0.399124 0.400519 0.401915 0.403310 0.404706 0.406102 0.407497 0.408893 0.410288 0.411684 0.413079 0.414475 0.415870 0.417266 0.418661 0.420057 0.421452 0.422848 0.424244 0.425639 0.427035 0.428430 0.429826 0.431221 0.432617 0.434012 0.435408 0.436803 0.438199 0.439594 0.440990 0.442386 0.443781 0.445177 0.446572 0.447968 0.449363 0.450759 0.452154 0.453550 0.454945 0.456341 0.457736 0.459132 0.460528 0.461923 0.463319 0.464714 0.466110 0.467505 0.468901 0.470296 0.471692 0.473087 0.474483 0.475878 0.477274 0.478669 0.480065 0.481461 0.482856 0.484252 0.485647 0.487043 0.488438 0.489834 0.491229 0.492625 0.494020 0.495416 0.496811 0.498207 0.499603 0.500998 0.502394 0.503789 0.505185
      -0.11142       -0.07120       -0.03758       -0.02557       -0.02051       -0.01614       -0.01454       -0.01264       -0.01137       -0.01055       -0.00960       -0.00921       -0.00848       -0.00809       -0.00777       -0.00738       -0.00718       -0.00680       -0.00666       -0.00644       -0.00626       -0.00610       -0.00592       -0.01215       -0.61627       -1.07367       -0.95531       -0.46259        0.16033        0.60049        0.67981        0.41557       -0.12506       -0.58509       -0.83359       -0.46315        0.07856        0.40932        0.45484        0.00529       -0.54916       -0.58123       -0.34222        0.31513        0.35405       -0.14031       -0.48634       -0.43182       -0.03947        0.25387        0.08802       -0.21821       -0.19741        0.14188        0.43986        0.17537       -0.28008       -0.03656        0.28135        0.16959       -0.15781       -0.15250        0.33131        0.28579       -0.22394       -0.07628        0.25018        0.10760       -0.32792       -0.17893        0.11130       -0.13949       -0.27259        0.08365       -0.03466       -0.34201       -0.01742        0.09228       -0.26359       -0.09936        0.10208       -0.31721        0.04234        0.17034       -0.19559        0.01380        0.06428       -0.20717        0.12194        0.00601       -0.06584        0.02598       -0.16035        0.01308        0.14410       -0.09950        0.00646        0.05130        0.02240        0.19632        0.08634        0.14487        0.04569        0.05628       -0.00971       -0.07079       -0.05523        0.04034       -0.03264       -0.00211       -0.08781       -0.01421        0.01284        0.06509        0.01649       -0.06478        0.02702       -0.03924       -0.04807       -0.03699       -0.00231       -0.03389        0.01266        0.07419        0.03899        0.08444        0.02425        0.00458        0.04489        0.05203        0.00054        0.06857        0.04146       -0.02898       -0.01500       -0.01782       -0.04127       -0.06354       -0.02894       -0.03184       -0.01720       -0.05896       -0.09615        0.01074       -0.01996       -0.04766        0.04787        0.00723        0.00849        0.00266       -0.03014       -0.03996        0.01551       -0.01125        0.03936       -0.01561       -0.01596       -0.02345        0.01138        0.03929        0.06832       -0.02641       -0.01416       -0.01176        0.01196        0.02468       -0.00056       -0.05476       -0.01207       -0.01683       -0.08705        0.01014        0.02825        0.03234        0.00288       -0.04711       -0.00699        0.00850        0.03326       -0.04265       -0.05528        0.00191       -0.01897       -0.02704       -0.02518       -0.00035       -0.00049       -0.00440       -0.03178        0.00310        0.00535        0.05669       -0.00876        0.00046        0.00303        0.00091        0.02594       -0.01686       -0.01954       -0.01373        0.05322       -0.00943       -0.02537        0.01153       -0.00151       -0.01588       -0.03687       -0.01115       -0.03879       -0.09348       -0.03537       -0.01762       -0.00075       -0.03683        0.01747       -0.00445       -0.01313        0.03906       -0.02847        0.02525        0.06332        0.03438        0.00519       -0.07396       -0.01173        0.00720        0.03775        0.03417        0.00336       -0.00584        0.00520       -0.00939        0.01220       -0.01553       -0.01779       -0.00782        0.03264       -0.01387       -0.02865       -0.03115       -0.03986       -0.01241        0.02749        0.00406       -0.00463       -0.02928       -0.01742        0.04154        0.02089        0.05086        0.03452        0.00384       -0.02765       -0.02183        0.02385        0.02154       -0.03473       -0.02397       -0.00760       -0.02649       -0.02811       -0.03777       -0.02758       -0.01366       -0.00493        0.05784        0.00017       -0.01504       -0.00627       -0.00866        0.04439        0.04197        0.03114       -0.02074       -0.02863        0.00844       -0.05008        0.00519       -0.05704       -0.02110       -0.04151        0.01921        0.00590        0.02871        0.05269       -0.03834       -0.04535       -0.03779        0.00935       -0.01885        0.03353        0.05692       -0.07069       -0.03646       -0.01738        0.01059        0.02644       -0.07010       -0.03632       -0.00814       -0.05875       -0.03162       -0.02771        0.02740        0.04346        0.05898        0.01958       -0.00480        0.02980       -0.04953        0.06311        0.05544       -0.04596        0.06650       -0.06460        0.03819        0.01268        0.04153       -0.00624       -0.01529       -0.02941       -0.02098        0.00973       -0.01802        0.01431       -0.05655        0.02500        0.03670        0.00004        0.04216       -0.08584       -0.08893        0.01350        0.00819       -0.00629       -0.01362       -0.00740       -0.05612       -0.09355       -0.04436        0.02803       -0.06480       -0.02339       -0.09905        0.09751        0.04551        0.17042       -0.03217       -0.13936       -0.11639        0.04678        0.02818        0.19546        0.23577       -0.06871        0.26996       -0.17320       -0.13297        0.20910       -0.07365        0.40668        0.25999       -0.11152
-0.111425 -0.018929 -0.018689 -0.018289 -0.017729 -0.017008 -0.016128 -0.015087 -0.013887 -0.012526 -0.011005 -0.010281 -0.009665 -0.008996 -0.008273 -0.007547 -0.007284 -0.007004 -0.006706 -0.007052 -0.008037 -0.009073 -0.120691 -0.335083 -0.559000 -0.628671 -0.686435 -0.447710 0.040173 0.377913 0.463540 0.356263 -0.079844 -0.417959 -0.648572 -0.426748 -0.005324 0.262620 0.319368 0.028609 -0.336557 -0.518416 -0.300731 0.133980 0.233664 -0.047032 -0.428195 -0.380303 -0.102992 0.162844 0.128003 -0.193930 -0.185028 0.120991 0.365987 0.176630 -0.158836 -0.088520 0.208722 0.183618 -0.106240 -0.181308 0.251207 0.327812 -0.130849 -0.117034 0.242991 0.130495 -0.363221 -0.216024 0.162224 -0.092662 -0.336652 0.072627 0.148831 -0.395675 -0.073040 0.248098 -0.314676 -0.213272 0.236504 -0.340471 -0.138866 0.388399 -0.213407 -0.089052 0.356066 -0.375296 0.167961 0.137889 -0.354478 0.216442 -0.245161 -0.057392 0.381438 -0.278884 0.073969 0.016230 -0.036424 0.306557 -0.029910 0.245712 -0.011469 0.095752 0.092715 -0.214849 0.057270 -0.023026 0.035003 -0.101828 0.013422 -0.087665 0.033942 0.048661 0.087944 -0.017111 -0.032296 -0.026334 -0.037984 -0.026936 -0.006093 -0.054696 -0.005721 0.075771 0.102577 0.087152 0.050894 0.005061 -0.035210 0.038097 0.047680 0.005009 0.036911 0.034412 -0.004893 0.032385 -0.114285 -0.035032 -0.014062 -0.080348 -0.030208 -0.079996 -0.085663 0.014072 -0.033616 -0.021650 0.028697 0.023637 0.005281 -0.037628 0.078621 0.018634 0.015747 0.008616 -0.022533 0.067136 0.026564 -0.097302 -0.089082 0.178385 0.033292 -0.010559 0.023604 0.049434 -0.016598 -0.044499 0.030377 -0.005857 -0.098732 -0.038298 0.069552 -0.011635 -0.048129 0.076306 -0.017315 0.015879 0.005467 0.114204 0.021600 0.009352 0.076173 -0.088065 -0.020028 0.064621 -0.010742 -0.058258 0.061982 -0.073349 -0.045059 -0.003805 0.008750 0.074970 0.146924 0.057810 -0.033028 0.006356 -0.020185 0.073827 -0.022652 -0.009186 -0.024223 0.009766 0.005637 -0.002657 -0.108546 0.004017 0.009618 -0.040037 -0.079691 0.016941 -0.034165 -0.062925 -0.102192 -0.072550 -0.061772 -0.023138 0.058852 -0.060072 -0.097972 0.063022 0.070026 0.025603 0.102215 -0.068824 0.000359 -0.009966 0.005060 0.080519 0.028220 -0.012805 -0.043740 -0.029596 0.009374 0.050214 -0.012597 -0.033006 0.037389 -0.047338 0.015473 -0.089840 -0.028484 0.034690 0.016452 -0.030859 -0.034693 -0.042127 -0.032030 -0.033616 -0.022411 -0.082779 0.005673 0.050575 -0.039085 0.024125 0.021805 -0.044778 -0.057150 0.005179 0.041374 0.020072 0.006839 0.059576 0.018173 -0.034786 0.077815 -0.029636 0.000752 0.002511 0.036855 0.051484 0.051733 0.035353 -0.096912 0.070496 0.011410 0.095457 -0.012957 -0.049006 -0.133195 -0.056631 0.007141 -0.025087 -0.021128 0.006894 0.028362 0.042357 -0.121960 -0.050921 -0.043788 -0.082552 0.059560 -0.065270 -0.136853 -0.049691 -0.065619 0.066929 -0.070454 0.042896 -0.021781 0.054980 0.103794 0.067628 -0.025081 0.034814 0.005092 0.182922 -0.068096 -0.090495 0.080731 0.028345 -0.005573 -0.021346 -0.028413 0.089961 0.128339 -0.054693 -0.094213 0.004760 -0.233168 0.017291 0.001347 0.024162 -0.228942 0.014782 0.011607 0.093282 0.034712 0.127858 -0.067079 -0.060450 -0.162474 0.045588 -0.101353 0.005125 0.011399 0.244095 0.083245 0.144171 0.061912 -0.122578 -0.145397 -0.218731 -0.286679 0.097775 0.346032 0.088119 -0.192251 -0.215261 0.222017 -0.114978 0.058710 0.065360 0.015320 0.091087 0.227516 0.244714 0.483867 0.734779 -0.386877 0.663887 -0.211363 0.000000 -0.315574
0.100000 0.106163 0.124626 0.155298 0.197983 0.252304 0.317615 0.392876 0.476520 0.566306 0.659183 0.751173 0.837303 0.911623 0.967333 0.997064 0.993348 0.949285 0.859419 0.720776 0.534000 0.304433 0.042964 0.233595 0.502862 0.738216 0.911254 0.995376 0.970268 0.826746 0.571131 0.228065 0.159397 0.533408 0.829127 0.986260 0.962776 0.748007 0.371523 0.095978 0.552423 0.885132 0.999554 0.849325 0.458320 0.074786 0.595732 0.936970 0.973416 0.673779 0.126230 0.478137 0.906946 0.976981 0.639369 0.019189 0.619138 0.979269 0.873944 0.332927 0.386454 0.910838 0.944289 0.445952 0.317678 0.900589 0.935722 0.378160 0.432268 0.961974 0.834931 0.115982 0.694574 0.995640 0.538531 0.345066 0.959609 0.789740 0.047494 0.850904 0.909216 0.146096 0.758130 0.952639 0.228138 0.726868 0.955589 0.201791 0.769179 0.921151 0.065705 0.868309 0.819198 0.181044 0.972646 0.596126 0.514261 0.987163 0.205606 0.846015 0.786639 0.328457 0.999870 0.286154 0.834092 0.761867 0.421358 0.984288 0.067683 0.955111 0.498260 0.745033 0.799603 0.443887 0.958846 0.127682 0.999807 0.154511 0.961481 0.379823 0.883002 0.544166 0.796057 0.653757 0.722848 0.718106 0.676993 0.745331 0.665372 0.739575 0.689534 0.699953 0.746114 0.620782 0.826031 0.493138 0.912877 0.308148 0.981267 0.062357 0.996709 0.234583 0.919298 0.551611 0.713617 0.830537 0.366024 0.989259 0.093250 0.940903 0.572614 0.632597 0.922357 0.096243 0.976781 0.514319 0.639816 0.940756 0.014398 0.926146 0.696896 0.392576 0.999988 0.412454 0.654428 0.963982 0.185871 0.792985 0.906616 0.056377 0.847054 0.880207 0.033302 0.840237 0.902165 0.117284 0.769295 0.958149 0.304085 0.605682 0.999621 0.570744 0.311299 0.942035 0.848275 0.124041 0.683226 0.998941 0.622494 0.168265 0.840518 0.970189 0.497295 0.269872 0.869985 0.967791 0.529474 0.187462 0.797621 0.997149 0.706153 0.084481 0.567205 0.957756 0.931419 0.519080 0.094821 0.662397 0.973784 0.930093 0.565280 0.018566 0.524375 0.896058 0.996204 0.812325 0.411686 0.087751 0.555009 0.880662 0.999868 0.900732 0.618986 0.223181 0.204253 0.584976 0.858565 0.989886 0.970842 0.816813 0.560158 0.242414 0.093168 0.407719 0.670616 0.861704 0.971306 0.999184 0.952504 0.843549 0.687305 0.499675 0.295633 0.088433 0.111406 0.295854 0.459637 0.599927 0.715836 0.808003 0.878321 0.929287 0.963887 0.985212 0.996287 0.999933 0.998668 0.994649 0.989643 0.985036 0.981798 0.980538 0.981464 0.984415 0.988866 0.993883 0.998159 1.000000 0.997331 0.987727 0.968448 0.936550 0.889012 0.822892 0.735598 0.625200 0.490841 0.333009 0.154204 0.041068 0.245640 0.449637 0.640906 0.805290 0.927557 0.992780 0.988222 0.905353 0.742089 0.504734 0.209300 0.118128 0.442824 0.724337 0.921703 0.999689 0.936058 0.728273 0.397963 0.008133 0.422869 0.768151 0.970283 0.976580 0.771786 0.387963 0.095522 0.565255 0.898650 0.997359 0.819409 0.400247 0.147135 0.657874 0.963338 0.949119 0.603301 0.033910 0.556812 0.941079 0.955036 0.575302 0.054611 0.669096 0.988963 0.851966 0.304305 0.400435 0.910295 0.950522 0.480783 0.259437 0.860936 0.968501 0.499629 0.279698 0.891547 0.936697 0.365925 0.456842 0.972097 0.806020 0.056620 0.741024 0.986309 0.473070 0.416896 0.978567 0.740819 0.119717 0.884237 0.882667 0.095634 0.783527 0.944039 0.215977 0.724095 0.961958 0.243386 0.726053 0.952106 0.179834 0.788761
1.000000 1.000000 1.000000 1.000000 1.000000 1.000000 1.000000 1.000000 1.000000 1.000000 1.000000 1.000000 1.000000 1.000000 1.000000 1.000000 1.000000 1.000000 1.000000 1.000000 1.000000 1.000000 1.000000 1.000000 -0.467953 -0.467953 -0.467953 -0.467953 -0.476843 -0.476843 -0.476843 -0.476843 -0.476843 -0.476843 -0.476843 -0.455728 -0.425938 -0.358728 -0.421014 -0.477069 -0.456468 -0.467004 -0.502249 -0.594633 -0.575414 -0.533653 -0.458832 -0.486682 -0.498707 -0.430307 -0.454906 -0.326850 -0.355014 -0.324915 -0.293590 -0.285486 -0.200514 -0.221017 -0.163514 -0.126848 -0.121941 -0.063922 0.029674 0.010579 0.063949 0.090803 0.137965 0.152900 0.311637 0.249096 0.282407 0.391162 0.424343 0.488582 0.463751 0.546340 0.558252 0.571641 0.588965 0.685868 0.693588 0.733643 0.766605 0.685770 0.691316 0.713701 0.657576 0.660056 0.677902 0.664203 0.649805 0.551888 0.457848 0.434939 0.424736 0.393391 0.318444 0.123399 0.104330 0.044349 -0.152746 -0.229083 -0.007672 -0.017054 -0.101345 -0.236873 -0.095402 -0.042413 -0.082889 -0.106366 -0.209536 -0.173750 -0.138865 -0.083202 -0.180585 -0.148611 -0.095866 -0.109717 -0.045575 0.013695 0.075023 0.095940 0.120854 0.119616 0.088274 0.022364 -0.008549 0.007987 -0.034501 -0.016371 0.003109 -0.042414 -0.024387 -0.100432 -0.180182 -0.287541 -0.314268 -0.295228 -0.323259 -0.347568 -0.429112 -0.421589 -0.452624 -0.355857 -0.302240 -0.326396 -0.318314 -0.246786 -0.405380 -0.308187 -0.352667 -0.350768 -0.356448 -0.376807 -0.259579 -0.193782 -0.142908 -0.204765 -0.298897 -0.294124 -0.346829 -0.078491 -0.344594 -0.335960 -0.265875 -0.266685 -0.192286 -0.180867 -0.149804 -0.080035 -0.077615 -0.089837 -0.025736 -0.127911 -0.129769 -0.050621 -0.100334 -0.098616 -0.075411 -0.088329 -0.078893 -0.134164 -0.133944 -0.139419 -0.135431 -0.190243 -0.217349 -0.195143 -0.207726 -0.249952 -0.157156 -0.116705 -0.177363 -0.184354 -0.078640 -0.053265 -0.056880 -0.074067 -0.051929 -0.071171 -0.046509 -0.053221 -0.042041 0.002277 0.017242 -0.060597 -0.029378 -0.036596 0.123877 0.123893 -0.041645 -0.027098 -0.017387 0.119569 0.095214 0.087235 0.161151 0.143272 0.252038 0.243840 0.088146 0.072850 0.279897 0.280078 0.333834 0.336145 0.346039 0.113699 0.111377 0.328195 0.322834 0.347895 0.346632 0.343469 0.330150 0.320447 0.190566 0.188706 0.274493 0.274929 0.269414 0.258364 0.277211 0.268512 0.258584 0.255815 0.226087 0.221707 0.225258 0.225186 0.225869 0.226931 0.228266 0.228932 0.234235 0.278609 0.283327 0.208022 0.231544 0.226123 0.223617 0.225498 0.224602 0.228233 0.227504 0.226192 0.231838 0.227989 0.235792 0.239564 0.244064 0.230142 0.219383 0.216128 0.216007 0.216063 0.215711 0.219398 0.214404 0.214672 0.215855 0.216691 0.229795 0.232995 0.238185 0.244547 0.252854 0.260143 0.268558 0.228385 0.228675 0.229354 0.187400 0.189443 0.190415 0.134816 0.137564 0.137874 0.146944 0.104975 0.094937 0.106067 0.112416 0.112927 0.117551 0.091996 0.092294 0.102113 0.096034 0.101007 0.114424 0.141144 0.141289 0.157525 0.154726 0.162419 0.166913 0.164394 0.166499 0.154915 0.154667 0.155201 0.155201 0.155201 0.155201 0.156768 0.156768 0.156768 0.156768 0.150870 0.150870 0.150870 0.150870 0.140229 0.140229 0.140229 0.140229 0.127758 0.127758 0.127758 0.127758 0.115407 0.115407 0.115407 0.115407 0.131876 0.131876 0.131876 0.131876 0.120846 0.120846 0.120846 0.120846 0.110720 0.110720 0.110720 0.101142 0.101142 0.101142 0.101142 0.091869 0.091869 0.091869
0.000000 0.000000 0.000000 0.000000 0.000000 0.000000 0.000000 0.000000 0.000000 0.000000 0.000000 0.000000 0.000000 0.000000 0.000000 0.000000 0.000000 0.000000 0.000000 0.000000 0.000000 0.000000 0.000000 0.000000 0.359211 0.359211 0.359211 0.359211 0.417029 0.417029 0.417029 0.417029 0.417029 0.417029 0.417029 0.417029 0.458831 0.458831 0.458831 0.458831 0.458831 0.458831 0.436436 0.436436 0.436436 0.436436 0.436436 0.436436 0.458831 0.458831 0.458831 0.458831 0.458831 0.436436 0.436436 0.436436 0.436436 0.436436 0.458831 0.458831 0.458831 0.458831 0.458831 0.458831 0.458831 0.458831 0.436436 0.436436 0.436436 0.436436 0.458831 0.458831 0.458831 0.417029 0.417029 0.417029 0.417029 0.458831 0.458831 0.458831 0.458831 0.458831 0.458831 0.436436 0.436436 0.436436 0.436436 0.436436 0.436436 0.436436 0.436436 0.436436 0.417029 0.417029 0.417029 0.458831 0.458831 0.400000 0.400000 0.400000 0.458831 0.458831 0.400000 0.400000 0.400000 0.458831 0.458831 0.384900 0.384900 0.384900 0.436436 0.436436 0.436436 0.436436 0.371391 0.371391 0.371391 0.417029 0.417029 0.417029 0.417029 0.400000 0.400000 0.400000 0.400000 0.400000 0.400000 0.400000 0.400000 0.384900 0.384900 0.384900 0.384900 0.384900 0.384900 0.371391 0.371391 0.371391 0.371391 0.458831 0.359211 0.359211 0.359211 0.359211 0.359211 0.359211 0.359211 0.359211 0.436436 0.348155 0.348155 0.348155 0.348155 0.417029 0.338062 0.338062 0.338062 0.338062 0.400000 0.328798 0.328798 0.400000 0.328798 0.328798 0.320256 0.320256 0.384900 0.320256 0.320256 0.384900 0.312348 0.312348 0.384900 0.304997 0.304997 0.371391 0.304997 0.304997 0.371391 0.298142 0.298142 0.359211 0.359211 0.291730 0.291730 0.359211 0.291730 0.291730 0.348155 0.348155 0.285714 0.285714 0.348155 0.348155 0.280056 0.280056 0.338062 0.338062 0.274721 0.274721 0.338062 0.328798 0.328798 0.269680 0.269680 0.328798 0.328798 0.320256 0.264906 0.264906 0.320256 0.320256 0.320256 0.256074 0.256074 0.312348 0.312348 0.312348 0.312348 0.304997 0.251976 0.251976 0.304997 0.304997 0.304997 0.298142 0.298142 0.244339 0.244339 0.298142 0.298142 0.291730 0.291730 0.291730 0.291730 0.291730 0.234082 0.234082 0.285714 0.285714 0.285714 0.285714 0.280056 0.280056 0.280056 0.280056 0.280056 0.274721 0.274721 0.274721 0.274721 0.274721 0.269680 0.269680 0.269680 0.219529 0.219529 0.269680 0.264906 0.264906 0.264906 0.264906 0.264906 0.260378 0.260378 0.260378 0.260378 0.256074 0.256074 0.256074 0.256074 0.256074 0.251976 0.251976 0.251976 0.251976 0.251976 0.248069 0.248069 0.248069 0.248069 0.248069 0.244339 0.244339 0.244339 0.244339 0.240772 0.240772 0.240772 0.240772 0.240772 0.237356 0.237356 0.237356 0.237356 0.234082 0.234082 0.234082 0.234082 0.234082 0.230940 0.230940 0.230940 0.230940 0.227921 0.227921 0.227921 0.227921 0.225018 0.225018 0.225018 0.225018 0.225018 0.222222 0.222222 0.222222 0.222222 0.219529 0.219529 0.219529 0.219529 0.216930 0.216930 0.216930 0.216930 0.214423 0.214423 0.214423 0.214423 0.212000 0.212000 0.212000 0.212000 0.209657 0.209657 0.209657 0.209657 0.207390 0.207390 0.207390 0.207390 0.205196 0.205196 0.205196 0.205196 0.203069 0.203069 0.203069 0.203069 0.201008 0.201008 0.201008 0.201008 0.199007 0.199007 0.199007 0.197066 0.197066 0.197066 0.197066 0.195180 0.195180 0.195180
