# Output from CTFFind version 4.1.14, run on 2024-08-30 16:05:32
# Input file: CtfFind/job005/Movies/20170629_00035_frameImage_PS.mrc ; Number of micrographs: 1
# Pixel size: 1.400 Angstroms ; acceleration voltage: 200.0 keV ; spherical aberration: 1.40 mm ; amplitude contrast: 0.10
# Box size: 512 pixels ; min. res.: 30.0 Angstroms ; max. res.: 5.0 Angstroms ; min. def.: 5000.0 um; max. def. 50000.0 um; num. frames averaged: 1
# 6 lines per micrograph: #1 - spatial frequency (1/Angstroms); #2 - 1D rotational average of spectrum (assuming no astigmatism); #3 - 1D rotational average of spectrum; #4 - CTF fit; #5 - cross-correlation between spectrum and CTF fit; #6 - 2sigma of expected cross correlation of noise
0.000000 0.001396 0.002791 0.004187 0.005582 0.006978 0.008373 0.009769 0.011164 0.012560 0.013955 0.015351 0.016746 0.018142 0.019538 0.020933 0.022329 0.023724 0.025120 0.026515 0.027911 0.029306 0.030702 0.032097 0.033493 0.034888 0.036284 0.037680 0.039075 0.040471 0.041866 0.043262 0.044657 0.046053 0.047448 0.048844 0.050239 0.051635 0.053030 0.054426 0.055822 0.057217 0.058613 0.060008 0.061404 0.062799 0.064195 0.065590 0.066986 0.068381 0.069777 0.071172 0.072568 0.073964 0.075359 0.076755 0.078150 0.079546 0.080941 0.082337 0.083732 0.085128 0.086523 0.087919 0.089314 0.090710 0.092106 0.093501 0.094897 0.096292 0.097688 0.099083 0.100479 0.101874 0.103270 0.104665 0.106061 0.107456 0.108852 0.110247 0.111643 0.113039 0.114434 0.115830 0.117225 0.118621 0.120016 0.121412 0.122807 0.124203 0.125598 0.126994 0.128389 0.129785 0.131181 0.132576 0.133972 0.135367 0.136763 0.138158 0.139554 0.140949 0.142345 0.143740 0.145136 0.146531 0.147927 0.149323 0.150718 0.152114 0.153509 0.154905 0.156300 0.157696 0.159091 0.160487 0.161882 0.163278 0.164673 0.166069 0.167465 0.168860 0.170256 0.171651 0.173047 0.174442 0.175838 0.177233 0.178629 0.180024 0.181420 0.182815 0.184211 0.185607 0.187002 0.188398 0.189793 0.191189 0.192584 0.193980 0.195375 0.196771 0.198166 0.199562 0.200957 0.202353 0.203749 0.205144 0.206540 0.207935 0.209331 0.210726 0.212122 0.213517 0.214913 0.216308 0.217704 0.219099 0.220495 0.221891 0.223286 0.224682 0.226077 0.227473 0.228868 0.230264 0.231659 0.233055 0.234450 0.235846 0.237241 0.238637 0.240033 0.241428 0.242824 0.244219 0.245615 0.247010 0.248406 0.249801 0.251197 0.252592 0.253988 0.255383 0.256779 0.258175 0.259570 0.260966 0.262361 0.263757 0.265152 0.266548 0.267943 0.269339 0.270734 0.272130 0.273525 0.274921 0.276317 0.277712 0.279108 0.280503 0.281899 0.283294 0.284690 0.286085 0.287481 0.288876 0.290272 0.291667 0.293063 0.294458 0.295854 0.297250 0.298645 0.300041 0.301436 0.302832 0.304227 0.305623 0.307018 0.308414 0.309809 0.311205 0.312600 0.313996 0.315392 0.316787 0.318183 0.319578 0.320974 0.322369 0.323765 0.325160 0.326556 0.327951 0.329347 0.330742 0.332138 0.333534 0.334929 0.336325 0.337720 0.339116 0.340511 0.341907 0.343302 0.344698 0.346093 0.347489 0.348884 0.350280 0.351676 0.353071 0.354467 0.355862 0.357258 0.358653 0.360049 0.361444 0.362840 0.364235 0.365631 0.367026 0.368422 0.369818 0.371213 0.372609 0.374004 0.375400 0.376795 0.378191 0.379586 0.380982 0.382377 0.383773 0.385168 0.386564 0.387960 0.389355 0.390751 0.392146 0.393542 0.394937 0.396333 0.397728 0.399124 0.400519 0.401915 0.403310 0.404706 0.406102 0.407497 0.408893 0.410288 0.411684 0.413079 0.414475 0.415870 0.417266 0.418661 0.420057 0.421452 0.422848 0.424244 0.425639 0.427035 0.428430 0.429826 0.431221 0.432617 0.434012 0.435408 0.436803 0.438199 0.439594 0.440990 0.442386 0.443781 0.445177 0.446572 0.447968 0.449363 0.450759 0.452154 0.453550 0.454945 0.456341 0.457736 0.459132 0.460528 0.461923 0.463319 0.464714 0.466110 0.467505 0.468901 0.470296 0.471692 0.473087 0.474483 0.475878 0.477274 0.478669 0.480065 0.481461 0.482856 0.484252 0.485647 0.487043 0.488438 0.489834 0.491229 0.492625 0.494020 0.495416 0.496811 0.498207 0.499603 0.500998 0.502394 0.503789 0.505185
      -0.11510       -0.07419       -0.03999       -0.02778       -0.02262       -0.01819       -0.01655       -0.01463       -0.01333       -0.01250       -0.01153       -0.01114       -0.01039       -0.01000       -0.00967       -0.00928       -0.00907       -0.00868       -0.00854       -0.00832       -0.00813       -0.00797       -0.00779       -0.01391       -0.79874       -0.88615       -0.36876        0.11342        0.62526        0.63766        0.20714       -0.40623       -0.77371       -0.66193       -0.30995        0.38008        0.43238        0.13080       -0.39306       -0.70012       -0.25676        0.25948        0.27311       -0.14127       -0.53612       -0.31187        0.10849        0.32955       -0.03750       -0.26859       -0.19855        0.26343        0.30687       -0.18183       -0.25591        0.13269        0.25704       -0.05151       -0.16242        0.16452        0.19520       -0.14271       -0.15017        0.23368        0.02903       -0.22336       -0.02048        0.09310       -0.27913       -0.11927        0.08589       -0.22948       -0.18023        0.18602       -0.16814       -0.10081        0.19513       -0.21586       -0.17173        0.20789       -0.11258        0.14576        0.07110       -0.07742        0.03125       -0.00944       -0.06251        0.07185       -0.03850        0.02100       -0.03338       -0.00076        0.04375       -0.03997       -0.04077        0.04118        0.02506        0.00363        0.01507        0.01393       -0.02506        0.06576        0.05311       -0.00569        0.04802       -0.01993        0.04892        0.02334        0.01615        0.00040       -0.02521       -0.05741       -0.03715        0.03006        0.04334       -0.01416       -0.01824        0.01997       -0.00327       -0.05993        0.03996       -0.04099        0.03898       -0.04349       -0.03548        0.00445       -0.07201       -0.09338        0.03364       -0.01678       -0.00954       -0.06847       -0.02661       -0.02854       -0.01992        0.02009        0.01807       -0.01414        0.00213        0.02359        0.02778       -0.01113        0.06825        0.04132        0.01757       -0.03856        0.01332        0.01977        0.02165       -0.01954       -0.10428       -0.06900       -0.04503        0.05615        0.04582        0.02958        0.00533       -0.06013       -0.01213       -0.04403        0.02165       -0.00821       -0.02495       -0.02498       -0.00977       -0.01909        0.00305        0.01171        0.00752        0.00176        0.02771       -0.02398        0.02073        0.02556        0.02010       -0.01181       -0.06265       -0.03082        0.01250       -0.04689       -0.01343       -0.02609       -0.04435       -0.01265        0.00442       -0.00620        0.02305        0.00211        0.03854       -0.00115       -0.00945       -0.00606        0.00720        0.00117        0.00987        0.00383        0.04547        0.04221        0.00374        0.02069       -0.03956       -0.05714       -0.01916        0.01002       -0.01817       -0.01897       -0.02358       -0.04556       -0.03078       -0.02796        0.00373       -0.02890       -0.02330       -0.01580        0.01136        0.02260        0.01255       -0.01269       -0.03625        0.01569        0.03284        0.01503        0.00111        0.02481        0.00018       -0.01816       -0.00104        0.02700       -0.02368       -0.04728       -0.01830        0.01912       -0.02560        0.00078        0.01094        0.03178       -0.03970        0.04021        0.00572       -0.02757       -0.03250       -0.03703       -0.02393       -0.02464       -0.02076       -0.03065       -0.03686        0.02208        0.02985        0.03322        0.02630        0.01289       -0.03003       -0.02860       -0.01192        0.00067        0.00528        0.00775       -0.01269       -0.03770       -0.02757        0.01276        0.01888       -0.00008        0.01846        0.01991       -0.02307       -0.00255       -0.00558        0.02962        0.00718       -0.01086       -0.06723       -0.03012        0.03129        0.06899        0.04380        0.00192       -0.03611       -0.09237       -0.06488       -0.01993       -0.00544       -0.05323       -0.04407       -0.00693       -0.03227        0.03071        0.02198       -0.01000        0.01376        0.05433        0.00458       -0.10435        0.05657       -0.00972        0.03019       -0.02721       -0.03065       -0.01156       -0.00986        0.05110        0.02325        0.00986       -0.02512       -0.07376       -0.07424        0.04721       -0.02407       -0.03488       -0.01117        0.01863       -0.02488       -0.02927       -0.03501       -0.02454        0.09946        0.04189       -0.05606        0.09614       -0.01627       -0.01901        0.05201       -0.02341       -0.01387       -0.00355       -0.12034       -0.00346        0.01718       -0.04456       -0.05237        0.01586        0.01442       -0.01812        0.00809        0.06329       -0.03911        0.10638        0.00838       -0.06504        0.08780       -0.02023        0.12456        0.06653        0.01930       -0.14343       -0.05424       -0.09002       -0.10421       -0.17584       -0.09446       -0.02265        0.02315        0.15031       -0.00446        0.02678        0.21441       -0.06163        0.14989       -0.15185        0.27818       -0.00081       -0.14294
-0.115099 -0.021114 -0.020867 -0.020454 -0.019876 -0.019133 -0.018225 -0.017152 -0.015914 -0.014511 -0.012943 -0.012198 -0.011571 -0.010890 -0.010154 -0.009439 -0.009170 -0.008884 -0.008580 -0.008345 -0.008156 -0.007958 -0.131764 -0.335840 -0.538998 -0.424455 -0.305240 -0.015012 0.363616 0.397864 0.115968 -0.207627 -0.570313 -0.527672 -0.263083 0.096445 0.349571 0.079643 -0.246135 -0.584400 -0.238633 0.054771 0.231850 -0.112641 -0.338470 -0.313143 0.023405 0.247969 0.016094 -0.194007 -0.152929 0.137462 0.317098 -0.113347 -0.224377 0.064533 0.204240 0.003330 -0.098798 0.080728 0.175401 -0.075091 -0.136470 0.156788 0.086532 -0.213255 -0.064749 0.067516 -0.166051 -0.164477 0.042982 -0.162099 -0.244229 0.090214 -0.064945 -0.132785 0.153780 -0.080295 -0.211668 0.179809 0.001474 0.072478 0.125692 -0.042914 -0.008438 0.011486 -0.055020 0.023602 0.001972 -0.009276 -0.027843 -0.011011 0.045000 -0.013991 -0.052608 0.027172 0.020086 0.014028 0.009275 0.020916 -0.038292 0.048532 0.060217 -0.023778 0.009905 0.011538 0.028642 0.053384 -0.005964 -0.003246 -0.016148 -0.049976 -0.040234 0.012508 0.014586 0.005880 0.003235 0.010591 0.030881 -0.091314 0.072666 -0.009354 -0.028174 -0.008551 -0.081772 0.046916 -0.046490 -0.131513 0.045278 -0.036144 -0.024016 -0.022777 -0.050078 -0.004954 -0.033080 0.003264 -0.008999 0.038001 -0.056955 0.083392 0.040170 -0.068616 0.067943 0.093069 0.017647 -0.036690 -0.032666 0.065951 -0.005654 0.040514 -0.082799 -0.111705 -0.060399 0.044167 0.064774 0.060153 0.036335 -0.081848 -0.002627 -0.023014 -0.034476 0.026181 -0.035880 -0.036383 0.049962 -0.005906 0.032472 0.068680 0.007387 -0.009702 0.004179 0.018082 -0.023820 0.030923 0.059552 0.013378 -0.064769 -0.058269 0.030609 -0.018905 -0.029214 0.007093 -0.025190 -0.039251 0.002287 -0.016708 0.040217 -0.013425 0.040073 0.008494 -0.082406 0.040229 0.002441 -0.006531 0.010278 -0.020837 0.079177 -0.041743 0.037836 0.017097 -0.023051 -0.091816 -0.045495 0.036296 -0.097463 0.042440 -0.067520 -0.034073 -0.078742 -0.008978 -0.048307 -0.027515 -0.026741 -0.086394 0.029484 0.017313 0.076204 -0.022259 -0.023573 -0.060373 0.033536 -0.004255 0.019425 -0.068885 0.024010 0.003101 -0.045099 0.027577 0.086349 -0.043758 -0.050426 0.011383 -0.059684 0.032765 0.001822 -0.001289 0.032555 -0.061908 0.105352 -0.055253 -0.116916 -0.007423 -0.035268 -0.010274 -0.024331 -0.024172 -0.033233 -0.027424 -0.036861 0.026466 0.030811 -0.010573 0.018537 -0.089649 -0.017387 0.020731 -0.000331 0.001274 0.024858 -0.086875 -0.021513 -0.041877 -0.069287 0.024538 0.019486 0.056923 0.004664 0.005314 -0.062800 -0.067821 0.119757 -0.008461 -0.062290 -0.002469 -0.033673 0.106940 0.079827 0.029328 0.013948 -0.087385 -0.034027 -0.055019 0.061940 -0.036816 -0.078363 0.000753 0.014146 -0.064706 0.004030 0.003186 -0.098720 0.027099 0.093109 -0.112053 -0.222684 0.143576 -0.101592 0.231055 -0.131236 0.045825 0.015917 0.036953 0.160602 0.008679 0.005748 -0.002153 -0.128552 -0.064493 0.135485 -0.073008 0.002833 0.010909 -0.008344 -0.138085 -0.095430 0.103606 -0.113104 0.160974 0.043821 -0.072205 0.058820 0.005860 -0.050971 -0.079799 -0.106314 0.003169 -0.108940 -0.209355 -0.020207 -0.172760 -0.054851 0.078441 -0.028877 -0.014381 0.017392 0.156227 0.077134 0.078528 -0.027315 -0.260932 -0.194696 0.135950 0.057159 0.191884 -0.190597 -0.097287 -0.659672 0.019473 -0.094134 0.017317 0.087066 -0.165873 -0.143098 0.110449 0.157228 -0.065929 0.052117 0.497859 -0.315548 0.501314 -0.309742 0.193651 -0.005384
0.100000 0.106770 0.127051 0.160729 0.207557 0.267058 0.338397 0.420232 0.510531 0.606392 0.703877 0.797886 0.882113 0.949139 0.990694 0.998149 0.963277 0.879280 0.742059 0.551629 0.313510 0.039840 0.250109 0.530374 0.770035 0.936445 0.999935 0.939616 0.749455 0.443382 0.057866 0.349626 0.707419 0.941854 0.993603 0.835018 0.483906 0.008467 0.480979 0.855026 0.999970 0.856044 0.446609 0.114954 0.649536 0.966781 0.935736 0.546208 0.068207 0.665323 0.985648 0.869212 0.345917 0.352971 0.885827 0.966756 0.529115 0.209117 0.837375 0.976544 0.518307 0.274047 0.897302 0.923995 0.310074 0.532376 0.992908 0.707672 0.130737 0.873314 0.906635 0.176384 0.713266 0.978374 0.355949 0.603689 0.994711 0.415781 0.584136 0.992910 0.363468 0.660268 0.967144 0.192359 0.807632 0.869544 0.106208 0.958186 0.623580 0.503684 0.985292 0.170101 0.877535 0.728262 0.437490 0.986570 0.110963 0.931240 0.582108 0.655324 0.880817 0.281400 0.995885 0.090172 0.966928 0.400494 0.851067 0.628840 0.701058 0.779795 0.555916 0.869853 0.440132 0.917514 0.366909 0.937379 0.342200 0.937246 0.367614 0.917072 0.441438 0.868979 0.557609 0.778373 0.702799 0.626853 0.852436 0.398124 0.967561 0.087884 0.995701 0.282963 0.880283 0.655715 0.582281 0.930848 0.113049 0.987098 0.433395 0.732383 0.873839 0.179426 0.987189 0.491839 0.636053 0.952690 0.084872 0.881365 0.790987 0.222859 0.975428 0.630573 0.403279 0.997441 0.540855 0.467284 0.999194 0.547821 0.424318 0.991838 0.649639 0.267902 0.944589 0.815355 0.014615 0.790073 0.968297 0.406979 0.450074 0.973413 0.808882 0.095599 0.672539 0.999916 0.700931 0.017233 0.715984 0.999987 0.732053 0.079799 0.603943 0.978626 0.879962 0.377166 0.285206 0.814626 0.999516 0.785167 0.275671 0.325287 0.800944 0.998353 0.870739 0.477894 0.047158 0.547682 0.890750 0.999403 0.863834 0.533272 0.094922 0.351678 0.717886 0.942237 0.997265 0.888597 0.647804 0.322178 0.035663 0.376913 0.662621 0.867037 0.978133 0.995990 0.930203 0.796587 0.614040 0.401926 0.177995 0.042862 0.249256 0.433172 0.590210 0.718575 0.818827 0.893074 0.944514 0.976871 0.994049 0.999879 0.997872 0.991134 0.982289 0.973448 0.966209 0.961699 0.960539 0.962866 0.968378 0.976300 0.985329 0.993719 0.999198 0.998999 0.989913 0.968347 0.930476 0.872485 0.790843 0.682669 0.546400 0.382081 0.192196 0.017821 0.239332 0.460098 0.664734 0.835353 0.952980 0.999778 0.961559 0.830918 0.610249 0.314075 0.029948 0.381974 0.693539 0.914132 0.999838 0.923410 0.683433 0.310375 0.133334 0.560899 0.877053 0.999895 0.884875 0.543592 0.050876 0.466532 0.859393 0.999706 0.826666 0.377776 0.209204 0.731952 0.991971 0.873554 0.403235 0.242195 0.793595 0.999545 0.747321 0.134738 0.552974 0.968535 0.880399 0.313505 0.436053 0.943654 0.897287 0.302139 0.489853 0.974149 0.816544 0.099876 0.694309 0.997090 0.566913 0.296595 0.938095 0.839518 0.056171 0.780884 0.958362 0.300123 0.631581 0.993589 0.430499 0.547606 0.998975 0.459163 0.550900 0.996376 0.390478 0.640564 0.973028 0.215989 0.792262 0.883298 0.073099 0.946134 0.659906 0.453856 0.994612 0.248838 0.828164 0.799671 0.318529 0.999870 0.276456 0.844783 0.742817 0.455217 0.975131 0.013929 0.971427 0.438149 0.792563 0.748816 0.518967 0.929227 0.221133 0.996871 0.052973 0.984982 0.278722 0.928738 0.448798 0.857933 0.566334 0.794263 0.638400
1.000000 1.000000 1.000000 1.000000 1.000000 1.000000 1.000000 1.000000 1.000000 1.000000 1.000000 1.000000 1.000000 1.000000 1.000000 1.000000 1.000000 1.000000 1.000000 1.000000 1.000000 1.000000 1.000000 1.000000 -0.411645 -0.411645 -0.411645 -0.528153 -0.528153 -0.528153 -0.528153 -0.528153 -0.528153 -0.528153 -0.486150 -0.492998 -0.494081 -0.437120 -0.382247 -0.415864 -0.435431 -0.414460 -0.405616 -0.396733 -0.269075 -0.363229 -0.322797 -0.328740 -0.287080 -0.315331 -0.224220 -0.277278 -0.160510 -0.209663 -0.139788 -0.107749 -0.129936 -0.123992 -0.120428 0.009050 0.033443 0.078042 0.228790 0.263812 0.217012 0.272519 0.308474 0.378515 0.446668 0.433046 0.528290 0.477146 0.518109 0.523336 0.635783 0.641620 0.687326 0.720716 0.717730 0.683436 0.650596 0.572713 0.555790 0.552431 0.537223 0.587133 0.467955 0.462252 0.454140 0.410739 0.317770 0.318039 0.382822 0.218045 0.291732 0.190059 0.123386 0.112890 -0.044316 -0.046844 0.014851 0.026790 -0.095504 -0.043653 0.044249 -0.099954 -0.107740 0.035501 -0.078697 -0.155384 -0.201173 -0.185532 -0.142656 -0.096984 -0.183627 -0.116691 -0.277184 -0.116314 -0.068763 -0.059493 -0.085919 -0.080858 -0.071394 -0.032411 0.042263 0.091346 0.081143 0.007703 0.113660 0.146105 0.168346 0.103615 0.106793 0.198533 0.100838 0.094992 0.290862 0.173224 0.215201 0.212915 0.186125 0.113422 0.131790 0.088346 0.070837 0.039291 0.181914 -0.121262 -0.132105 0.016515 -0.142593 -0.147671 -0.246507 -0.124133 -0.109919 -0.382467 -0.056996 -0.108726 -0.347648 -0.152867 -0.107342 -0.376040 -0.094664 -0.129733 -0.227042 -0.175559 -0.181756 -0.120876 -0.213995 -0.214193 -0.149481 -0.226469 -0.248869 -0.056217 -0.019667 -0.178486 -0.093467 -0.075152 -0.067849 0.017811 0.076302 -0.016216 -0.019586 0.209526 0.216221 0.050170 0.043590 0.313551 0.308766 0.298862 0.309044 0.094052 0.205384 0.263222 0.240997 0.227097 0.217461 0.253749 0.225277 0.225263 0.232367 0.182446 0.195986 0.233723 0.193521 0.294532 0.289112 0.290232 0.342041 0.313396 0.297634 0.282832 0.156257 0.149255 0.222798 0.208343 0.198547 0.189406 0.180029 0.205450 0.192605 0.192888 0.190171 0.183291 0.178738 0.180037 0.179513 0.182089 0.166315 0.215754 0.230739 0.178499 0.175958 0.197436 0.191104 0.183571 0.184360 0.185882 0.188688 0.194316 0.200234 0.207495 0.207662 0.209581 0.211244 0.215484 0.209636 0.235416 0.231128 0.230813 0.234667 0.236362 0.227699 0.225551 0.230890 0.234296 0.259321 0.261253 0.271043 0.173564 0.137469 0.143012 0.155418 0.164102 0.187245 0.198544 0.208739 0.236866 0.236049 0.206351 0.205946 0.209957 0.138301 0.129378 0.138620 0.152430 0.153345 0.081836 0.086964 0.087977 0.057950 0.049809 0.035759 0.044401 0.041378 0.028476 0.021496 0.027790 0.026843 0.013349 0.033901 0.018504 0.017328 0.032533 0.026430 0.013669 -0.017348 -0.017177 0.002463 -0.029123 -0.012350 0.010976 -0.004714 -0.008142 -0.042128 -0.057898 -0.073285 -0.092679 -0.106591 -0.111990 -0.112704 -0.164848 -0.164601 -0.133552 -0.122742 -0.106347 -0.110534 -0.111286 -0.102601 -0.102601 -0.102601 -0.109148 -0.109148 -0.109148 -0.109148 -0.098419 -0.098419 -0.098419 -0.093029 -0.093029 -0.093029 -0.093029 -0.071102 -0.071102 -0.071102 -0.071102 -0.074137 -0.074137 -0.074137 -0.086156 -0.086156 -0.086156 -0.086156 -0.071274 -0.071274 -0.071274 -0.067777 -0.067777 -0.067777 -0.067777 -0.047454 -0.047454 -0.047454 -0.034808 -0.034808 -0.034808 -0.034808 -0.034189 -0.034189 -0.034189 -0.040567 -0.040567 -0.040567
0.000000 0.000000 0.000000 0.000000 0.000000 0.000000 0.000000 0.000000 0.000000 0.000000 0.000000 0.000000 0.000000 0.000000 0.000000 0.000000 0.000000 0.000000 0.000000 0.000000 0.000000 0.000000 0.000000 0.000000 0.359211 0.359211 0.359211 0.436436 0.436436 0.436436 0.436436 0.436436 0.436436 0.436436 0.417029 0.417029 0.417029 0.417029 0.417029 0.417029 0.417029 0.458831 0.458831 0.458831 0.458831 0.458831 0.458831 0.458831 0.458831 0.458831 0.458831 0.458831 0.458831 0.458831 0.458831 0.458831 0.458831 0.458831 0.458831 0.458831 0.458831 0.458831 0.458831 0.436436 0.436436 0.436436 0.436436 0.458831 0.458831 0.458831 0.458831 0.458831 0.458831 0.458831 0.458831 0.458831 0.458831 0.458831 0.458831 0.436436 0.436436 0.436436 0.436436 0.436436 0.436436 0.436436 0.436436 0.436436 0.458831 0.458831 0.417029 0.417029 0.417029 0.458831 0.458831 0.400000 0.400000 0.400000 0.458831 0.458831 0.458831 0.458831 0.384900 0.384900 0.384900 0.436436 0.436436 0.436436 0.436436 0.417029 0.417029 0.417029 0.417029 0.417029 0.417029 0.400000 0.400000 0.400000 0.400000 0.400000 0.400000 0.400000 0.400000 0.384900 0.384900 0.384900 0.384900 0.384900 0.384900 0.458831 0.371391 0.371391 0.371391 0.371391 0.359211 0.359211 0.436436 0.359211 0.359211 0.359211 0.359211 0.436436 0.348155 0.348155 0.348155 0.348155 0.417029 0.338062 0.338062 0.417029 0.328798 0.328798 0.400000 0.328798 0.328798 0.400000 0.320256 0.320256 0.384900 0.320256 0.320256 0.384900 0.312348 0.312348 0.384900 0.304997 0.304997 0.371391 0.371391 0.304997 0.304997 0.371391 0.359211 0.298142 0.298142 0.359211 0.359211 0.291730 0.291730 0.348155 0.348155 0.285714 0.285714 0.348155 0.348155 0.280056 0.280056 0.338062 0.338062 0.338062 0.338062 0.269680 0.269680 0.328798 0.328798 0.328798 0.264906 0.264906 0.320256 0.320256 0.320256 0.320256 0.320256 0.256074 0.256074 0.312348 0.312348 0.312348 0.312348 0.304997 0.304997 0.304997 0.248069 0.248069 0.304997 0.298142 0.298142 0.298142 0.298142 0.298142 0.291730 0.291730 0.291730 0.291730 0.291730 0.285714 0.285714 0.285714 0.285714 0.230940 0.230940 0.280056 0.280056 0.280056 0.280056 0.280056 0.274721 0.274721 0.274721 0.274721 0.274721 0.269680 0.269680 0.269680 0.269680 0.264906 0.264906 0.264906 0.264906 0.264906 0.260378 0.260378 0.260378 0.260378 0.260378 0.256074 0.256074 0.256074 0.256074 0.251976 0.251976 0.251976 0.251976 0.251976 0.248069 0.248069 0.248069 0.248069 0.244339 0.244339 0.244339 0.244339 0.244339 0.240772 0.240772 0.240772 0.240772 0.237356 0.237356 0.237356 0.237356 0.234082 0.234082 0.234082 0.234082 0.234082 0.230940 0.230940 0.230940 0.230940 0.227921 0.227921 0.227921 0.227921 0.225018 0.225018 0.225018 0.225018 0.222222 0.222222 0.222222 0.222222 0.219529 0.219529 0.219529 0.219529 0.216930 0.216930 0.216930 0.216930 0.214423 0.214423 0.214423 0.212000 0.212000 0.212000 0.212000 0.209657 0.209657 0.209657 0.209657 0.207390 0.207390 0.207390 0.207390 0.205196 0.205196 0.205196 0.203069 0.203069 0.203069 0.203069 0.201008 0.201008 0.201008 0.201008 0.199007 0.199007 0.199007 0.197066 0.197066 0.197066 0.197066 0.195180 0.195180 0.195180 0.193347 0.193347 0.193347 0.193347 0.191565 0.191565 0.191565 0.189832 0.189832 0.189832 0.189832 0.188144 0.188144 0.188144 0.186501 0.186501 0.186501
