# Output from CTFFind version 4.1.14, run on 2024-08-30 16:05:32
# Input file: CtfFind/job005/Movies/20170629_00023_frameImage_PS.mrc ; Number of micrographs: 1
# Pixel size: 1.400 Angstroms ; acceleration voltage: 200.0 keV ; spherical aberration: 1.40 mm ; amplitude contrast: 0.10
# Box size: 512 pixels ; min. res.: 30.0 Angstroms ; max. res.: 5.0 Angstroms ; min. def.: 5000.0 um; max. def. 50000.0 um; num. frames averaged: 1
# 6 lines per micrograph: #1 - spatial frequency (1/Angstroms); #2 - 1D rotational average of spectrum (assuming no astigmatism); #3 - 1D rotational average of spectrum; #4 - CTF fit; #5 - cross-correlation between spectrum and CTF fit; #6 - 2sigma of expected cross correlation of noise
0.000000 0.001396 0.002791 0.004187 0.005582 0.006978 0.008373 0.009769 0.011164 0.012560 0.013955 0.015351 0.016746 0.018142 0.019538 0.020933 0.022329 0.023724 0.025120 0.026515 0.027911 0.029306 0.030702 0.032097 0.033493 0.034888 0.036284 0.037680 0.039075 0.040471 0.041866 0.043262 0.044657 0.046053 0.047448 0.048844 0.050239 0.051635 0.053030 0.054426 0.055822 0.057217 0.058613 0.060008 0.061404 0.062799 0.064195 0.065590 0.066986 0.068381 0.069777 0.071172 0.072568 0.073964 0.075359 0.076755 0.078150 0.079546 0.080941 0.082337 0.083732 0.085128 0.086523 0.087919 0.089314 0.090710 0.092106 0.093501 0.094897 0.096292 0.097688 0.099083 0.100479 0.101874 0.103270 0.104665 0.106061 0.107456 0.108852 0.110247 0.111643 0.113039 0.114434 0.115830 0.117225 0.118621 0.120016 0.121412 0.122807 0.124203 0.125598 0.126994 0.128389 0.129785 0.131181 0.132576 0.133972 0.135367 0.136763 0.138158 0.139554 0.140949 0.142345 0.143740 0.145136 0.146531 0.147927 0.149323 0.150718 0.152114 0.153509 0.154905 0.156300 0.157696 0.159091 0.160487 0.161882 0.163278 0.164673 0.166069 0.167465 0.168860 0.170256 0.171651 0.173047 0.174442 0.175838 0.177233 0.178629 0.180024 0.181420 0.182815 0.184211 0.185607 0.187002 0.188398 0.189793 0.191189 0.192584 0.193980 0.195375 0.196771 0.198166 0.199562 0.200957 0.202353 0.203749 0.205144 0.206540 0.207935 0.209331 0.210726 0.212122 0.213517 0.214913 0.216308 0.217704 0.219099 0.220495 0.221891 0.223286 0.224682 0.226077 0.227473 0.228868 0.230264 0.231659 0.233055 0.234450 0.235846 0.237241 0.238637 0.240033 0.241428 0.242824 0.244219 0.245615 0.247010 0.248406 0.249801 0.251197 0.252592 0.253988 0.255383 0.256779 0.258175 0.259570 0.260966 0.262361 0.263757 0.265152 0.266548 0.267943 0.269339 0.270734 0.272130 0.273525 0.274921 0.276317 0.277712 0.279108 0.280503 0.281899 0.283294 0.284690 0.286085 0.287481 0.288876 0.290272 0.291667 0.293063 0.294458 0.295854 0.297250 0.298645 0.300041 0.301436 0.302832 0.304227 0.305623 0.307018 0.308414 0.309809 0.311205 0.312600 0.313996 0.315392 0.316787 0.318183 0.319578 0.320974 0.322369 0.323765 0.325160 0.326556 0.327951 0.329347 0.330742 0.332138 0.333534 0.334929 0.336325 0.337720 0.339116 0.340511 0.341907 0.343302 0.344698 0.346093 0.347489 0.348884 0.350280 0.351676 0.353071 0.354467 0.355862 0.357258 0.358653 0.360049 0.361444 0.362840 0.364235 0.365631 0.367026 0.368422 0.369818 0.371213 0.372609 0.374004 0.375400 0.376795 0.378191 0.379586 0.380982 0.382377 0.383773 0.385168 0.386564 0.387960 0.389355 0.390751 0.392146 0.393542 0.394937 0.396333 0.397728 0.399124 0.400519 0.401915 0.403310 0.404706 0.406102 0.407497 0.408893 0.410288 0.411684 0.413079 0.414475 0.415870 0.417266 0.418661 0.420057 0.421452 0.422848 0.424244 0.425639 0.427035 0.428430 0.429826 0.431221 0.432617 0.434012 0.435408 0.436803 0.438199 0.439594 0.440990 0.442386 0.443781 0.445177 0.446572 0.447968 0.449363 0.450759 0.452154 0.453550 0.454945 0.456341 0.457736 0.459132 0.460528 0.461923 0.463319 0.464714 0.466110 0.467505 0.468901 0.470296 0.471692 0.473087 0.474483 0.475878 0.477274 0.478669 0.480065 0.481461 0.482856 0.484252 0.485647 0.487043 0.488438 0.489834 0.491229 0.492625 0.494020 0.495416 0.496811 0.498207 0.499603 0.500998 0.502394 0.503789 0.505185
      -0.27001       -0.17347       -0.09276       -0.06394       -0.05178       -0.04131       -0.03745       -0.03291       -0.02985       -0.02788       -0.02560       -0.02468       -0.02292       -0.02198       -0.02121       -0.02028       -0.01979       -0.01888       -0.01855       -0.01801       -0.01758       -0.01720       -0.01678       -0.02037       -0.39878       -0.89212       -1.27260       -1.08764       -0.37210        0.41351        0.82725        0.82818        0.36191       -0.31154       -0.79848       -0.85981       -0.53711       -0.02871        0.52260        0.45112       -0.11306       -0.65229       -0.76808       -0.62511        0.01003        0.37140        0.06007       -0.42034       -0.49178       -0.17154        0.25977        0.27091       -0.03161       -0.36123       -0.03084        0.39307        0.30549       -0.05796       -0.26208        0.17762        0.41146        0.10510       -0.21366       -0.10908        0.21449       -0.01056       -0.32045       -0.09051        0.18908       -0.08468       -0.34134       -0.12601        0.08357       -0.25600       -0.21841        0.08990        0.05559       -0.19043       -0.06920        0.17686       -0.17801       -0.12409        0.17034       -0.06533       -0.11720        0.11887       -0.04308       -0.13881        0.16741       -0.11423       -0.10812        0.14849       -0.10610        0.01409        0.04850       -0.12258       -0.00500       -0.00377       -0.00984        0.11805       -0.08948        0.09523        0.07659       -0.01110        0.02794        0.02383       -0.05481        0.04105        0.01686       -0.00658        0.05503        0.06455        0.00629       -0.00255        0.01235       -0.03341       -0.01719       -0.01640       -0.01999        0.01514       -0.09300       -0.04505       -0.04610       -0.05675        0.00142       -0.03225        0.04604        0.05170        0.00923       -0.05605       -0.06285       -0.03674        0.03499       -0.02030       -0.01815        0.01538        0.04401       -0.00776       -0.07570       -0.01883        0.02366       -0.06937       -0.07448       -0.02216       -0.03215        0.00437        0.01719       -0.04022       -0.02338       -0.01384        0.00004       -0.00330       -0.02535        0.00735       -0.10950        0.02596        0.00438       -0.01435       -0.07730       -0.02521       -0.04773        0.06654        0.01212        0.01833        0.05001       -0.00415        0.00641        0.00974       -0.00689       -0.00601       -0.01695        0.01065       -0.01628       -0.00666        0.00162        0.03045       -0.07162       -0.04366       -0.04951       -0.07291       -0.05070        0.00468        0.00951       -0.05478       -0.01836       -0.01355       -0.04703        0.03105       -0.00575       -0.00528       -0.01453       -0.01458       -0.00821        0.08726        0.02920        0.00259       -0.04413       -0.05177        0.00112       -0.01606       -0.00092       -0.02513       -0.03016        0.02825        0.00212        0.05198       -0.02210       -0.02210       -0.04679       -0.00795        0.00662       -0.01367       -0.01017       -0.02724       -0.04574       -0.05345       -0.01973       -0.04578        0.00308       -0.01818        0.00936        0.01766       -0.00476        0.00677        0.00585        0.00702        0.00245        0.02054       -0.04345       -0.05843       -0.05796       -0.00444       -0.03307       -0.00922       -0.00064       -0.01315       -0.00158       -0.03856        0.02025       -0.02031        0.04055       -0.01183        0.00171       -0.04220       -0.00713        0.00857       -0.01459       -0.01293       -0.03050       -0.05654       -0.02621        0.01493        0.01013        0.00660       -0.04413       -0.02193       -0.03072       -0.01297        0.01880        0.03796        0.00351        0.01647       -0.05177       -0.00138        0.00879        0.04577        0.02667       -0.02063       -0.02364        0.02850       -0.04423       -0.03009       -0.02303        0.00352       -0.00837       -0.01829       -0.07483       -0.04171       -0.08329        0.00349        0.07982       -0.04293       -0.02878       -0.01106       -0.11885       -0.00620       -0.07066       -0.02333       -0.01813        0.04594        0.00490        0.05855        0.05449        0.04213        0.07744       -0.01484       -0.03909        0.06672        0.03166       -0.03965       -0.01742       -0.04563       -0.05268       -0.05034       -0.03289       -0.01025       -0.00700       -0.06304       -0.10754        0.04232        0.01958        0.04076       -0.04634       -0.01123       -0.05342        0.00261        0.03736        0.04475       -0.06627       -0.01965        0.03340       -0.03529       -0.07866       -0.06468       -0.00038       -0.00051        0.02633        0.04188        0.01946       -0.00363        0.08916        0.01697       -0.10170       -0.01777        0.00561        0.02641        0.05889        0.03948       -0.07561       -0.00849        0.00939        0.00570       -0.11190        0.00998        0.05065       -0.00439        0.08691        0.04712        0.03046       -0.09527       -0.10512       -0.10428       -0.17562       -0.05234        0.21738       -0.03520       -0.05731       -0.29826       -0.00401        0.07150        0.30582        0.03270       -0.14915
-0.270009 -0.048073 -0.047492 -0.046525 -0.045170 -0.043428 -0.041299 -0.038783 -0.035880 -0.032590 -0.028913 -0.027324 -0.025797 -0.024139 -0.022347 -0.020648 -0.020021 -0.019354 -0.018646 -0.018220 -0.017996 -0.017760 -0.107452 -0.258652 -0.416872 -0.696287 -0.987100 -0.792104 -0.313764 0.139984 0.564404 0.632982 0.290492 -0.150090 -0.665339 -0.690737 -0.550715 -0.054021 0.271975 0.420497 -0.071482 -0.487655 -0.758109 -0.539567 -0.108940 0.246718 0.084472 -0.323481 -0.418324 -0.209336 0.142727 0.302762 -0.017789 -0.271111 -0.061880 0.285265 0.321015 -0.014215 -0.211683 0.073264 0.377232 0.182706 -0.169584 -0.108557 0.151832 0.032714 -0.291492 -0.174907 0.195951 0.008489 -0.332401 -0.167868 0.087172 -0.154511 -0.312351 0.046275 0.149244 -0.253467 -0.129027 0.205042 -0.081045 -0.239479 0.206115 0.034965 -0.200254 0.158184 0.064156 -0.321251 0.201952 -0.062024 -0.270258 0.290353 -0.059245 -0.200522 0.242444 -0.298633 0.021430 0.102084 -0.247408 0.216888 -0.040384 -0.055186 0.230530 -0.104496 0.058548 -0.009686 -0.067800 0.032329 -0.014562 0.001518 0.011997 0.076656 0.029645 0.005232 -0.030537 -0.012879 -0.040175 0.030040 -0.013147 -0.032528 -0.066056 -0.036540 -0.088965 -0.029380 -0.039504 -0.015045 0.045236 0.043396 0.006000 -0.072462 0.006860 -0.016104 -0.010319 0.028016 -0.088784 -0.127979 0.082268 0.056322 -0.030492 -0.025004 0.088936 -0.137208 -0.075940 -0.023263 -0.017745 -0.041034 -0.002609 -0.003246 -0.017799 -0.005173 0.023757 -0.070196 0.023042 0.029894 -0.117385 -0.028124 -0.016528 0.008411 0.026935 -0.080027 -0.057301 0.104511 -0.049271 -0.013933 0.011659 -0.009311 0.001567 -0.053737 0.027911 -0.033290 0.016525 0.040704 0.035561 0.005465 0.003525 0.014162 -0.067418 -0.065876 -0.075107 -0.082676 0.030658 -0.004073 -0.013318 -0.051557 -0.050226 -0.011012 -0.026669 -0.055435 0.094167 0.009506 -0.054959 -0.068364 0.037581 0.030647 0.100339 -0.082378 -0.004753 -0.027675 0.023872 0.032248 -0.070508 0.056675 -0.014145 0.019004 0.013997 -0.002503 0.011122 -0.080078 -0.045781 -0.034515 -0.016711 0.070057 -0.044406 0.003348 -0.003215 -0.079052 0.037301 -0.020513 -0.031547 -0.072992 0.092390 0.049986 -0.012118 -0.008050 0.042057 0.024660 -0.002410 0.031586 -0.043479 -0.094898 -0.075117 -0.036077 -0.086317 -0.054786 0.091253 -0.004803 -0.047715 -0.022553 -0.002830 -0.012497 0.002335 -0.047648 0.046973 -0.018743 -0.051864 -0.028833 -0.050823 -0.021550 0.059830 -0.078144 0.017376 -0.008021 0.016010 -0.013744 -0.023738 0.010975 -0.000540 -0.009367 0.029111 -0.012929 0.048085 0.012616 -0.062819 -0.015091 -0.117584 0.160630 0.004328 -0.068530 0.026460 0.038807 -0.074095 -0.150549 -0.022970 0.061551 -0.053998 0.057660 -0.033968 -0.160790 -0.025520 0.049304 -0.036186 -0.017427 -0.107706 0.031328 -0.047602 -0.103661 -0.006943 -0.166946 -0.077613 0.064380 -0.098248 0.131464 0.123336 -0.034742 0.040559 0.077404 0.006511 0.039890 0.029057 0.041163 -0.130498 -0.050712 -0.057335 0.041543 -0.149729 0.040798 -0.013702 0.178319 -0.158408 0.002784 -0.007339 -0.091978 -0.053358 0.021086 -0.064266 -0.044545 -0.010672 0.050669 0.129014 -0.097353 -0.157414 0.167933 -0.119557 -0.201422 0.053470 0.099137 -0.014571 -0.053694 0.100643 -0.006561 -0.031983 -0.091807 0.123289 -0.080618 -0.011263 0.003295 -0.102887 -0.062300 0.082846 -0.030866 0.045014 0.048419 0.312113 0.038854 0.022051 -0.114488 0.187070 0.307517 -0.068940 0.034962 -0.120636 -0.150442 0.090844 -0.371506 0.263255 0.163990 -0.181972 -0.237215 -0.544282 -0.437421 0.191440 0.254819 0.200780
0.100000 0.105851 0.123381 0.152509 0.193061 0.244709 0.306888 0.378697 0.458776 0.545185 0.635276 0.725585 0.811763 0.888565 0.949930 0.989183 0.999384 0.973850 0.906854 0.794482 0.635604 0.432866 0.193561 0.069788 0.339359 0.592680 0.804173 0.947695 0.999999 0.944835 0.777186 0.506846 0.160417 0.219248 0.576915 0.852420 0.991194 0.956414 0.740344 0.371811 0.083307 0.530767 0.866099 0.999715 0.883537 0.531454 0.025537 0.497721 0.881583 0.996930 0.789952 0.312015 0.283868 0.786232 0.999296 0.823769 0.310776 0.340754 0.853760 0.990283 0.668664 0.021838 0.644552 0.990715 0.820047 0.202698 0.535388 0.974782 0.843294 0.197907 0.578286 0.991992 0.756675 0.007308 0.754749 0.987428 0.502186 0.363000 0.958235 0.807487 0.007263 0.805792 0.948556 0.277361 0.642844 0.993009 0.434899 0.534801 0.999813 0.491648 0.509969 0.999685 0.455809 0.573482 0.990819 0.322060 0.711056 0.939125 0.077851 0.879982 0.783581 0.273047 0.994422 0.458484 0.670940 0.925653 0.052165 0.963221 0.551978 0.632646 0.922824 0.117237 0.988939 0.392797 0.797947 0.769846 0.454724 0.965488 0.066406 0.992924 0.288799 0.898096 0.569789 0.734689 0.766526 0.548930 0.888694 0.373743 0.954955 0.228992 0.985194 0.124723 0.996016 0.064976 0.998636 0.050925 0.998133 0.082661 0.993294 0.159766 0.976656 0.280196 0.934858 0.437972 0.849816 0.619761 0.701608 0.801185 0.474115 0.944414 0.163846 0.999852 0.208856 0.915117 0.589958 0.653662 0.889914 0.221642 0.999276 0.305964 0.828030 0.777590 0.364403 0.998507 0.271559 0.816176 0.823969 0.236472 0.990729 0.499119 0.605637 0.970954 0.177673 0.819548 0.868914 0.063628 0.920381 0.769729 0.203009 0.956861 0.721016 0.241388 0.958481 0.740216 0.180947 0.926897 0.820701 0.019027 0.835748 0.929430 0.242376 0.638106 0.998900 0.572371 0.289703 0.926891 0.879389 0.203330 0.608291 0.997594 0.720002 0.021440 0.741656 0.997706 0.652717 0.069561 0.744161 0.999633 0.714735 0.059798 0.617451 0.981807 0.871686 0.358323 0.309447 0.833093 0.997344 0.751232 0.211366 0.401354 0.856255 0.998133 0.793619 0.328555 0.234011 0.714718 0.974673 0.951548 0.667697 0.213264 0.286294 0.706592 0.954524 0.985626 0.807226 0.469534 0.048963 0.370858 0.715929 0.933868 0.999533 0.914699 0.703420 0.404533 0.063498 0.274964 0.572713 0.801780 0.945758 0.999487 0.967398 0.861106 0.696788 0.492666 0.266860 0.035851 0.186544 0.389817 0.566713 0.713056 0.827440 0.910481 0.964552 0.992990 0.999811 0.989263 0.965552 0.932620 0.894051 0.852961 0.812020 0.773407 0.738842 0.709714 0.687075 0.671630 0.663822 0.663897 0.671786 0.687329 0.710038 0.739123 0.773605 0.812123 0.852935 0.893832 0.932251 0.965099 0.988874 0.999731 0.993576 0.966274 0.913944 0.833296 0.722064 0.579473 0.406853 0.208025 0.010302 0.238164 0.462687 0.668320 0.837770 0.953511 0.999708 0.964303 0.841665 0.634690 0.356518 0.031212 0.307246 0.617946 0.857408 0.986192 0.976297 0.817992 0.525291 0.137451 0.283415 0.661523 0.920131 0.998579 0.868183 0.544261 0.089235 0.395738 0.791480 0.990047 0.926664 0.604238 0.101992 0.438995 0.852704 0.999632 0.817388 0.352379 0.244213 0.760067 0.996744 0.849371 0.359915 0.284407 0.816256 0.998170 0.733830 0.127359 0.546701 0.962037 0.900676 0.376111 0.352235 0.898059 0.952410 0.467160 0.294300 0.888171 0.947028 0.416650 0.384094 0.941749 0.877396 0.215604 0.601591
1.000000 1.000000 1.000000 1.000000 1.000000 1.000000 1.000000 1.000000 1.000000 1.000000 1.000000 1.000000 1.000000 1.000000 1.000000 1.000000 1.000000 1.000000 1.000000 1.000000 1.000000 1.000000 1.000000 1.000000 -0.516784 -0.516784 -0.516784 -0.516784 -0.516784 -0.563237 -0.563237 -0.563237 -0.563237 -0.563237 -0.563237 -0.573989 -0.556708 -0.568783 -0.572411 -0.551384 -0.539106 -0.516378 -0.540251 -0.580279 -0.524990 -0.556356 -0.475528 -0.530013 -0.458991 -0.438820 -0.442899 -0.411826 -0.486579 -0.435673 -0.440899 -0.380078 -0.352203 -0.298095 -0.284670 -0.236572 -0.193765 -0.287988 -0.207389 -0.057852 -0.003641 -0.069773 0.050596 -0.022441 -0.037873 0.028732 0.097670 0.054765 0.119940 0.184366 0.125351 0.186434 0.167081 0.269196 0.256666 0.307581 0.300220 0.399835 0.435995 0.387491 0.430331 0.504668 0.491126 0.568414 0.588470 0.701425 0.649007 0.674560 0.751906 0.742292 0.703857 0.761058 0.794290 0.773287 0.789296 0.739717 0.604957 0.595958 0.563898 0.555891 0.542073 0.569103 0.541635 0.507771 0.457591 0.396592 0.503687 0.454684 0.431086 0.377425 0.333570 0.353686 0.384253 0.365384 0.344230 0.234605 0.276098 0.270599 0.170428 0.229643 0.320491 0.163024 0.098895 0.160089 0.199922 0.214629 0.172213 0.194144 0.182464 0.178549 0.168153 0.167988 0.130696 0.061430 0.057707 0.108211 0.104749 0.075147 0.086232 0.144526 0.207054 0.177766 0.153265 0.137287 0.106712 0.138336 0.316653 0.161960 0.167577 0.134130 0.221737 0.224174 0.109969 0.139551 -0.055119 -0.105365 -0.121136 -0.109826 -0.133578 -0.155140 -0.053406 -0.192509 -0.179544 -0.168392 -0.124097 -0.077962 -0.037580 -0.009304 -0.259763 -0.049771 -0.132497 -0.226339 -0.163191 -0.127116 -0.250872 -0.099152 -0.216699 -0.237617 -0.253636 -0.281627 -0.349727 -0.248945 -0.240170 -0.337342 -0.123631 -0.125520 -0.233385 -0.154142 -0.211852 -0.079846 -0.072553 -0.207570 -0.161957 0.006849 -0.005035 -0.098808 -0.076766 0.002777 -0.033514 -0.010984 -0.014181 -0.055295 -0.019638 -0.015128 -0.040172 -0.056785 -0.058149 0.053996 0.045943 -0.016792 0.026716 0.020207 0.034105 0.054424 0.063593 0.058659 0.018678 0.014940 0.096264 0.107700 0.137694 0.148245 0.104999 0.113606 0.152506 0.153990 0.148377 0.150680 0.100155 0.055236 0.112501 0.126072 0.121174 0.111789 0.185832 0.134879 0.134544 0.227265 0.208892 0.190214 0.178626 0.153701 0.159350 0.159883 0.157384 0.066383 0.064667 0.164821 0.172707 0.179935 0.178957 0.177501 0.171455 0.164466 0.171445 0.162366 0.162073 0.161979 0.216372 0.189095 0.185962 0.193276 0.190497 0.221581 0.227802 0.233992 0.230268 0.236407 0.236885 0.232585 0.261306 0.247911 0.244606 0.244082 0.247215 0.221660 0.223877 0.227317 0.265788 0.262598 0.260419 0.261340 0.260865 0.252472 0.249575 0.239793 0.241222 0.237986 0.238483 0.235256 0.224524 0.228046 0.232910 0.240981 0.218036 0.209506 0.218565 0.227306 0.231959 0.269514 0.268479 0.275234 0.280499 0.275247 0.275575 0.279052 0.302245 0.297774 0.300811 0.288530 0.282147 0.284419 0.219226 0.208513 0.211695 0.215397 0.217967 0.202003 0.202643 0.201211 0.201211 0.201211 0.199758 0.199758 0.199758 0.199758 0.199372 0.199372 0.199372 0.199372 0.199009 0.199009 0.199009 0.199009 0.197722 0.197722 0.197722 0.197722 0.194630 0.194630 0.194630 0.194630 0.194630 0.189025 0.189025 0.189025 0.189025 0.180696 0.180696 0.180696 0.180696 0.170386 0.170386 0.170386 0.170386 0.184738 0.184738 0.184738 0.184738
0.000000 0.000000 0.000000 0.000000 0.000000 0.000000 0.000000 0.000000 0.000000 0.000000 0.000000 0.000000 0.000000 0.000000 0.000000 0.000000 0.000000 0.000000 0.000000 0.000000 0.000000 0.000000 0.000000 0.000000 0.348155 0.348155 0.348155 0.348155 0.348155 0.417029 0.417029 0.417029 0.417029 0.417029 0.417029 0.417029 0.417029 0.417029 0.417029 0.417029 0.417029 0.417029 0.417029 0.417029 0.458831 0.458831 0.458831 0.458831 0.458831 0.417029 0.417029 0.417029 0.417029 0.417029 0.417029 0.458831 0.458831 0.458831 0.458831 0.436436 0.436436 0.436436 0.436436 0.436436 0.458831 0.458831 0.458831 0.458831 0.436436 0.436436 0.436436 0.436436 0.458831 0.458831 0.458831 0.417029 0.417029 0.417029 0.417029 0.458831 0.458831 0.458831 0.458831 0.458831 0.458831 0.436436 0.436436 0.436436 0.436436 0.436436 0.436436 0.436436 0.436436 0.436436 0.417029 0.417029 0.417029 0.417029 0.417029 0.417029 0.400000 0.400000 0.400000 0.458831 0.458831 0.400000 0.400000 0.400000 0.458831 0.458831 0.384900 0.384900 0.384900 0.436436 0.436436 0.436436 0.436436 0.371391 0.371391 0.371391 0.417029 0.417029 0.417029 0.417029 0.400000 0.400000 0.400000 0.400000 0.400000 0.400000 0.400000 0.400000 0.384900 0.384900 0.384900 0.384900 0.384900 0.384900 0.371391 0.371391 0.371391 0.371391 0.371391 0.371391 0.359211 0.359211 0.359211 0.359211 0.359211 0.359211 0.436436 0.348155 0.348155 0.348155 0.348155 0.348155 0.348155 0.417029 0.338062 0.338062 0.338062 0.338062 0.328798 0.328798 0.400000 0.328798 0.328798 0.400000 0.320256 0.320256 0.320256 0.320256 0.384900 0.312348 0.312348 0.384900 0.312348 0.312348 0.371391 0.304997 0.304997 0.371391 0.304997 0.304997 0.371391 0.298142 0.298142 0.359211 0.291730 0.291730 0.359211 0.291730 0.291730 0.348155 0.348155 0.285714 0.285714 0.348155 0.348155 0.280056 0.280056 0.338062 0.274721 0.274721 0.338062 0.338062 0.269680 0.269680 0.328798 0.328798 0.328798 0.264906 0.264906 0.320256 0.320256 0.260378 0.260378 0.320256 0.320256 0.312348 0.256074 0.256074 0.312348 0.312348 0.312348 0.304997 0.251976 0.251976 0.304997 0.304997 0.304997 0.298142 0.244339 0.244339 0.298142 0.298142 0.298142 0.291730 0.291730 0.237356 0.237356 0.291730 0.291730 0.285714 0.285714 0.285714 0.285714 0.285714 0.280056 0.230940 0.230940 0.280056 0.280056 0.280056 0.274721 0.274721 0.274721 0.274721 0.274721 0.269680 0.269680 0.269680 0.269680 0.219529 0.219529 0.264906 0.264906 0.264906 0.264906 0.264906 0.260378 0.260378 0.260378 0.260378 0.260378 0.256074 0.256074 0.256074 0.256074 0.256074 0.251976 0.251976 0.251976 0.251976 0.251976 0.248069 0.248069 0.248069 0.248069 0.244339 0.244339 0.244339 0.244339 0.244339 0.240772 0.240772 0.240772 0.240772 0.240772 0.237356 0.237356 0.237356 0.237356 0.237356 0.234082 0.234082 0.234082 0.234082 0.230940 0.230940 0.230940 0.230940 0.230940 0.227921 0.227921 0.227921 0.227921 0.225018 0.225018 0.225018 0.225018 0.222222 0.222222 0.222222 0.222222 0.222222 0.219529 0.219529 0.219529 0.219529 0.216930 0.216930 0.216930 0.216930 0.214423 0.214423 0.214423 0.214423 0.212000 0.212000 0.212000 0.212000 0.209657 0.209657 0.209657 0.209657 0.209657 0.207390 0.207390 0.207390 0.207390 0.205196 0.205196 0.205196 0.205196 0.203069 0.203069 0.203069 0.203069 0.201008 0.201008 0.201008 0.201008
