# Output from CTFFind version 4.1.14, run on 2024-08-30 16:05:31
# Input file: CtfFind/job005/Movies/20170629_00037_frameImage_PS.mrc ; Number of micrographs: 1
# Pixel size: 1.400 Angstroms ; acceleration voltage: 200.0 keV ; spherical aberration: 1.40 mm ; amplitude contrast: 0.10
# Box size: 512 pixels ; min. res.: 30.0 Angstroms ; max. res.: 5.0 Angstroms ; min. def.: 5000.0 um; max. def. 50000.0 um; num. frames averaged: 1
# 6 lines per micrograph: #1 - spatial frequency (1/Angstroms); #2 - 1D rotational average of spectrum (assuming no astigmatism); #3 - 1D rotational average of spectrum; #4 - CTF fit; #5 - cross-correlation between spectrum and CTF fit; #6 - 2sigma of expected cross correlation of noise
0.000000 0.001396 0.002791 0.004187 0.005582 0.006978 0.008373 0.009769 0.011164 0.012560 0.013955 0.015351 0.016746 0.018142 0.019538 0.020933 0.022329 0.023724 0.025120 0.026515 0.027911 0.029306 0.030702 0.032097 0.033493 0.034888 0.036284 0.037680 0.039075 0.040471 0.041866 0.043262 0.044657 0.046053 0.047448 0.048844 0.050239 0.051635 0.053030 0.054426 0.055822 0.057217 0.058613 0.060008 0.061404 0.062799 0.064195 0.065590 0.066986 0.068381 0.069777 0.071172 0.072568 0.073964 0.075359 0.076755 0.078150 0.079546 0.080941 0.082337 0.083732 0.085128 0.086523 0.087919 0.089314 0.090710 0.092106 0.093501 0.094897 0.096292 0.097688 0.099083 0.100479 0.101874 0.103270 0.104665 0.106061 0.107456 0.108852 0.110247 0.111643 0.113039 0.114434 0.115830 0.117225 0.118621 0.120016 0.121412 0.122807 0.124203 0.125598 0.126994 0.128389 0.129785 0.131181 0.132576 0.133972 0.135367 0.136763 0.138158 0.139554 0.140949 0.142345 0.143740 0.145136 0.146531 0.147927 0.149323 0.150718 0.152114 0.153509 0.154905 0.156300 0.157696 0.159091 0.160487 0.161882 0.163278 0.164673 0.166069 0.167465 0.168860 0.170256 0.171651 0.173047 0.174442 0.175838 0.177233 0.178629 0.180024 0.181420 0.182815 0.184211 0.185607 0.187002 0.188398 0.189793 0.191189 0.192584 0.193980 0.195375 0.196771 0.198166 0.199562 0.200957 0.202353 0.203749 0.205144 0.206540 0.207935 0.209331 0.210726 0.212122 0.213517 0.214913 0.216308 0.217704 0.219099 0.220495 0.221891 0.223286 0.224682 0.226077 0.227473 0.228868 0.230264 0.231659 0.233055 0.234450 0.235846 0.237241 0.238637 0.240033 0.241428 0.242824 0.244219 0.245615 0.247010 0.248406 0.249801 0.251197 0.252592 0.253988 0.255383 0.256779 0.258175 0.259570 0.260966 0.262361 0.263757 0.265152 0.266548 0.267943 0.269339 0.270734 0.272130 0.273525 0.274921 0.276317 0.277712 0.279108 0.280503 0.281899 0.283294 0.284690 0.286085 0.287481 0.288876 0.290272 0.291667 0.293063 0.294458 0.295854 0.297250 0.298645 0.300041 0.301436 0.302832 0.304227 0.305623 0.307018 0.308414 0.309809 0.311205 0.312600 0.313996 0.315392 0.316787 0.318183 0.319578 0.320974 0.322369 0.323765 0.325160 0.326556 0.327951 0.329347 0.330742 0.332138 0.333534 0.334929 0.336325 0.337720 0.339116 0.340511 0.341907 0.343302 0.344698 0.346093 0.347489 0.348884 0.350280 0.351676 0.353071 0.354467 0.355862 0.357258 0.358653 0.360049 0.361444 0.362840 0.364235 0.365631 0.367026 0.368422 0.369818 0.371213 0.372609 0.374004 0.375400 0.376795 0.378191 0.379586 0.380982 0.382377 0.383773 0.385168 0.386564 0.387960 0.389355 0.390751 0.392146 0.393542 0.394937 0.396333 0.397728 0.399124 0.400519 0.401915 0.403310 0.404706 0.406102 0.407497 0.408893 0.410288 0.411684 0.413079 0.414475 0.415870 0.417266 0.418661 0.420057 0.421452 0.422848 0.424244 0.425639 0.427035 0.428430 0.429826 0.431221 0.432617 0.434012 0.435408 0.436803 0.438199 0.439594 0.440990 0.442386 0.443781 0.445177 0.446572 0.447968 0.449363 0.450759 0.452154 0.453550 0.454945 0.456341 0.457736 0.459132 0.460528 0.461923 0.463319 0.464714 0.466110 0.467505 0.468901 0.470296 0.471692 0.473087 0.474483 0.475878 0.477274 0.478669 0.480065 0.481461 0.482856 0.484252 0.485647 0.487043 0.488438 0.489834 0.491229 0.492625 0.494020 0.495416 0.496811 0.498207 0.499603 0.500998 0.502394 0.503789 0.505185
      -0.09601       -0.07274       -0.05328       -0.04633       -0.04340       -0.04088       -0.03995       -0.03885       -0.03812       -0.03764       -0.03709       -0.03687       -0.03644       -0.03622       -0.03603       -0.03581       -0.03569       -0.03547       -0.03539       -0.03526       -0.03516       -0.03507       -0.03496       -0.03490       -0.12454       -0.72828       -0.84003       -0.83009       -0.56278       -0.07677        0.41199        0.71818        0.29008       -0.11203       -0.51375       -0.87145       -0.79675       -0.30123        0.17157        0.33379        0.23524       -0.20522       -0.61326       -0.42338       -0.09686        0.28249        0.25179       -0.10855       -0.35337       -0.30374       -0.01263        0.22855        0.18676       -0.08750       -0.24516        0.04172        0.28009        0.23117       -0.00668       -0.09028       -0.00083        0.24946        0.01594       -0.31365       -0.13100        0.14106        0.06220       -0.32843       -0.23188        0.14477       -0.04786       -0.34350       -0.16017        0.10715       -0.14003       -0.32041        0.06127        0.08409       -0.23629       -0.16046        0.10256       -0.11001       -0.20164        0.07042        0.03872       -0.24881        0.00876        0.01671       -0.18536        0.02787        0.03372       -0.16769        0.05466        0.00613       -0.16637        0.11846        0.03650       -0.04264        0.12019        0.05681       -0.03931        0.06809       -0.08262        0.02949       -0.09634       -0.01883        0.00749       -0.06884       -0.01550       -0.06741       -0.06178        0.00009       -0.05169       -0.04109       -0.03490       -0.08992       -0.03916        0.02694        0.00661       -0.00289        0.01265        0.00049       -0.04676       -0.04281       -0.10190       -0.03910       -0.05603       -0.07568       -0.03341       -0.05353       -0.11513       -0.02681       -0.08690       -0.05630       -0.05274       -0.07619        0.00931       -0.08691       -0.03095        0.01886       -0.00501        0.01428        0.03201        0.00869        0.00481        0.04349        0.09926        0.01765       -0.00819       -0.01181       -0.07712       -0.04819       -0.08220       -0.06450       -0.09422       -0.05522       -0.06387       -0.04750       -0.00999        0.00327       -0.08429       -0.08119       -0.07160       -0.04459       -0.00619        0.00311       -0.10763       -0.03717       -0.03837       -0.03664       -0.02012       -0.04420       -0.07672       -0.02803       -0.09328       -0.05776       -0.02363       -0.06793       -0.02096       -0.05659        0.01943       -0.01313        0.02873        0.02358       -0.00237       -0.03554       -0.01154       -0.03246       -0.03929       -0.04382       -0.03939        0.00148       -0.05905       -0.04769       -0.08913       -0.04108       -0.06049       -0.03845       -0.02630       -0.03124        0.00573        0.00163       -0.05056       -0.00457       -0.01075       -0.04124       -0.05679       -0.05370       -0.07288       -0.05182        0.02377       -0.00705        0.00482       -0.05763       -0.04684       -0.06345       -0.02488       -0.07097       -0.04551       -0.06517       -0.00278       -0.03673       -0.04328       -0.06007       -0.06845       -0.01057       -0.02727       -0.01601       -0.03464       -0.04625       -0.04031       -0.00520       -0.06607       -0.03199        0.01378        0.02084       -0.05656       -0.02989       -0.01646       -0.00672       -0.03361       -0.03290       -0.01600       -0.04918       -0.02536       -0.06832       -0.03703       -0.06850       -0.04864       -0.02886       -0.02379       -0.03823       -0.05543       -0.02964       -0.05239        0.00329       -0.02049       -0.02780       -0.02748       -0.03469       -0.03354       -0.03605       -0.05103       -0.04905       -0.05396       -0.03493       -0.04622       -0.06245        0.00486        0.02542        0.00229       -0.00987       -0.00755       -0.04975       -0.03917        0.00303       -0.04090       -0.10496       -0.03571       -0.06822       -0.07191       -0.09271       -0.00390       -0.04612       -0.01871       -0.01042        0.05190       -0.06867       -0.07281        0.01322       -0.06117       -0.05617       -0.10737        0.03362       -0.05548       -0.03069       -0.06039       -0.09972       -0.02819        0.00170       -0.08333       -0.06853        0.01622       -0.02450       -0.03258       -0.02338       -0.03324       -0.02775       -0.09360       -0.00415       -0.06744       -0.08862       -0.01687        0.04503        0.03176       -0.10432       -0.06884       -0.01751       -0.02864       -0.02190       -0.07595       -0.05183        0.02672       -0.04772        0.00088       -0.08624       -0.09462       -0.05911        0.03221        0.03925       -0.01285       -0.02407        0.00504       -0.00718        0.00401       -0.06808       -0.05762        0.11637        0.01170       -0.01436        0.04405       -0.09519       -0.04821       -0.03121       -0.04518        0.02254       -0.05944       -0.07954       -0.01381        0.00893       -0.23670       -0.00695       -0.07115       -0.18686        0.00015       -0.10708        0.03059        0.11705        0.10536       -0.27526       -0.01312       -0.42460       -1.29436
-0.096014 -0.042504 -0.042364 -0.042131 -0.041804 -0.041385 -0.040872 -0.040265 -0.039566 -0.038773 -0.037886 -0.037514 -0.037143 -0.036739 -0.036304 -0.035895 -0.035744 -0.035584 -0.035414 -0.035274 -0.035154 -0.035027 -0.086298 -0.171937 -0.262192 -0.484367 -0.715605 -0.664132 -0.450289 -0.140937 0.273499 0.417639 0.248705 -0.061778 -0.477742 -0.661514 -0.731285 -0.328550 0.019257 0.308699 0.154942 -0.128552 -0.531420 -0.404172 -0.125066 0.171170 0.265022 -0.062289 -0.273334 -0.276273 -0.072580 0.189707 0.193084 -0.049439 -0.190401 -0.011178 0.238588 0.226340 0.022799 -0.093297 0.009470 0.179373 0.050824 -0.256079 -0.167295 0.146687 0.100998 -0.264093 -0.354472 0.091673 0.025552 -0.319111 -0.209000 0.137707 -0.053166 -0.353556 -0.011616 0.248736 -0.235460 -0.205275 0.165752 -0.041484 -0.266463 0.038943 0.107529 -0.361696 -0.041528 0.187046 -0.278933 -0.026228 0.215600 -0.293767 -0.006335 0.220375 -0.297176 0.095933 0.141794 -0.240330 0.338389 -0.021841 -0.173614 0.322573 -0.287883 0.098264 0.029546 -0.208092 0.232496 -0.196153 0.019099 0.037837 -0.181715 0.091349 -0.147848 0.051669 -0.061505 -0.059181 -0.092612 -0.019832 0.018805 -0.013243 0.044685 -0.016446 -0.002871 -0.066440 -0.046202 -0.089422 -0.020913 -0.090369 -0.066371 -0.030784 -0.091570 -0.069002 -0.046279 -0.054557 -0.075724 -0.131122 -0.018423 -0.067074 -0.012436 0.004540 -0.037752 -0.050145 0.046842 0.016188 0.014448 0.032448 0.053042 0.073512 -0.009978 -0.016050 -0.037961 -0.090653 -0.075923 -0.108270 -0.051361 -0.044964 -0.034613 -0.061800 -0.038871 -0.045219 -0.081486 -0.129998 -0.022609 -0.048429 -0.033306 -0.025781 -0.026655 0.027863 -0.085620 -0.030428 -0.017075 -0.057018 -0.060592 -0.027993 -0.061201 -0.084477 -0.044463 -0.044227 -0.016650 -0.056790 -0.013564 0.052098 0.026732 -0.031866 -0.031186 -0.045430 0.058745 -0.027577 -0.021976 -0.048643 -0.025697 0.030369 -0.031015 -0.085357 -0.006285 -0.028583 -0.100222 -0.027579 -0.075532 -0.038449 0.043122 -0.047836 -0.078901 -0.006048 -0.011036 0.037179 0.069193 -0.164245 -0.016325 -0.049559 0.003864 0.080178 -0.061961 -0.054252 -0.087715 -0.098148 -0.052273 -0.072291 -0.051703 -0.072839 -0.037764 0.014029 -0.150583 -0.037162 -0.107773 -0.042215 -0.041868 -0.033574 -0.003050 0.002566 -0.101531 0.016228 0.013250 -0.017962 -0.018725 0.057614 -0.062953 -0.064053 0.025445 -0.019344 -0.090258 -0.028467 -0.091168 -0.062901 -0.045413 -0.120237 -0.094078 -0.061931 -0.049832 -0.016076 -0.062707 -0.051655 -0.019229 -0.051655 -0.108251 0.057797 -0.042241 -0.031469 0.053942 -0.098889 -0.068121 -0.038675 -0.061094 -0.046137 -0.079150 -0.044471 -0.120826 -0.050806 -0.004526 -0.092200 0.060671 -0.040465 0.104111 0.030753 0.033344 -0.030216 -0.069224 -0.049194 -0.065053 0.027131 -0.039877 0.006325 -0.008156 -0.118307 0.003287 0.155242 0.103648 -0.131011 -0.062961 0.014626 -0.131971 0.024425 -0.013288 0.033709 -0.105638 0.139793 -0.127341 -0.134009 -0.010854 -0.069211 -0.076081 0.024510 0.043804 -0.041108 0.055667 -0.107529 -0.025252 -0.214702 0.011595 0.044226 -0.082814 -0.163018 0.083078 -0.051259 -0.078449 -0.059403 -0.044776 -0.057983 0.097423 0.121830 -0.141762 -0.053891 0.016148 -0.109131 0.220969 -0.090643 -0.121430 -0.059560 -0.195115 -0.029379 -0.221086 0.006456 -0.142925 -0.067790 0.018170 0.027717 0.062422 0.162593 -0.009007 -0.053295 -0.089489 -0.238904 0.103643 0.130433 0.076714 0.271892 -0.212996 -0.111055 -0.063422 0.250810 0.055763 -0.188781 -0.427480 -0.171289 -0.010058 -0.142059 0.383970 0.010552 -0.102809 -0.128736 0.146018 0.000000 -0.096860
0.100000 0.105683 0.122710 0.151006 0.190408 0.240611 0.301093 0.371021 0.449141 0.533661 0.622137 0.711365 0.797315 0.875105 0.939063 0.982893 0.999967 0.983779 0.928556 0.830024 0.686290 0.498773 0.273057 0.019537 0.246350 0.504480 0.731188 0.901300 0.991046 0.981700 0.863541 0.639538 0.327950 0.037033 0.407418 0.726776 0.938760 0.997887 0.880808 0.595553 0.185852 0.272005 0.681121 0.943985 0.987176 0.784859 0.373768 0.147190 0.636470 0.946911 0.971893 0.686591 0.168249 0.416931 0.862692 0.995803 0.748555 0.199889 0.439255 0.901036 0.973640 0.605628 0.050915 0.691669 0.996576 0.794379 0.170208 0.554084 0.977215 0.843443 0.209729 0.558364 0.986692 0.788101 0.069918 0.702645 0.997639 0.589390 0.250104 0.911620 0.885994 0.170722 0.686622 0.992103 0.474156 0.451412 0.991718 0.655327 0.277955 0.960626 0.740263 0.195454 0.945198 0.751691 0.211824 0.960499 0.693384 0.325685 0.991579 0.548185 0.524003 0.992352 0.288608 0.766107 0.887568 0.095860 0.962292 0.593765 0.553079 0.969332 0.078139 0.923570 0.642347 0.548375 0.955686 0.028439 0.973501 0.460596 0.754829 0.808111 0.403682 0.977526 0.020480 0.987187 0.323867 0.883188 0.593475 0.716948 0.780970 0.531947 0.896768 0.358858 0.959138 0.216089 0.987241 0.112922 0.996995 0.053035 0.999211 0.037481 0.998924 0.066365 0.995247 0.139333 0.981411 0.254718 0.945034 0.407505 0.869095 0.586091 0.734344 0.768852 0.524178 0.921573 0.232412 0.998237 0.126502 0.947939 0.507615 0.730496 0.831673 0.340359 0.995501 0.167737 0.903490 0.665656 0.519275 0.971675 0.079746 0.917441 0.681319 0.452807 0.994213 0.262520 0.796181 0.864924 0.119409 0.956121 0.663360 0.395492 0.999066 0.482883 0.560686 0.993660 0.371642 0.633189 0.985509 0.348198 0.627370 0.991521 0.415420 0.542019 0.999971 0.563679 0.361487 0.970603 0.762288 0.069328 0.838645 0.943227 0.322558 0.535062 0.992319 0.733449 0.037257 0.775278 0.987943 0.553832 0.228589 0.861138 0.965660 0.499116 0.249439 0.850036 0.980361 0.588932 0.101949 0.733358 0.999312 0.788345 0.217200 0.443511 0.903265 0.977257 0.652296 0.074685 0.523097 0.918838 0.980398 0.702594 0.194963 0.367180 0.806148 0.996631 0.896770 0.550127 0.063105 0.431085 0.809897 0.990342 0.943377 0.693216 0.304814 0.135509 0.540582 0.839213 0.987106 0.970617 0.804291 0.524092 0.178293 0.181664 0.509154 0.767728 0.934185 0.999008 0.965011 0.844711 0.657059 0.424340 0.169055 0.087972 0.329455 0.542200 0.717337 0.850328 0.940091 0.988486 0.999429 0.978197 0.930766 0.863245 0.781509 0.690913 0.596133 0.501087 0.408934 0.322095 0.242323 0.170987 0.108910 0.056524 0.014174 0.018012 0.040027 0.051908 0.053605 0.045214 0.026693 0.001938 0.040693 0.089452 0.147965 0.215808 0.292269 0.376282 0.466210 0.559874 0.654534 0.746561 0.831737 0.905077 0.961093 0.993896 0.997635 0.966885 0.897251 0.786009 0.632829 0.440474 0.215463 0.031678 0.286414 0.530429 0.743133 0.902785 0.989307 0.986938 0.887083 0.691207 0.412779 0.078063 0.275554 0.602189 0.853684 0.987030 0.972482 0.801370 0.491438 0.088019 0.340246 0.711853 0.947969 0.990148 0.817067 0.455142 0.020884 0.500248 0.860642 0.999928 0.867844 0.487596 0.041749 0.566603 0.921800 0.983541 0.717180 0.199513 0.396414 0.854992 0.996624 0.752398 0.203765 0.435532 0.898343 0.975897 0.618256 0.027087 0.667036 0.991806 0.828836 0.243228 0.474958
1.000000 1.000000 1.000000 1.000000 1.000000 1.000000 1.000000 1.000000 1.000000 1.000000 1.000000 1.000000 1.000000 1.000000 1.000000 1.000000 1.000000 1.000000 1.000000 1.000000 1.000000 1.000000 1.000000 1.000000 -0.629994 -0.629994 -0.629994 -0.629994 -0.629994 -0.585055 -0.585055 -0.585055 -0.585055 -0.585055 -0.585055 -0.615744 -0.574807 -0.568955 -0.592637 -0.597776 -0.557288 -0.564735 -0.617761 -0.651798 -0.709154 -0.699907 -0.661815 -0.667414 -0.630873 -0.664504 -0.662709 -0.624511 -0.616605 -0.551872 -0.499903 -0.486978 -0.540778 -0.469903 -0.510860 -0.457641 -0.443716 -0.411894 -0.471703 -0.382090 -0.324246 -0.284230 -0.329684 -0.247940 -0.253725 -0.230640 -0.168606 -0.169147 -0.180023 -0.134083 -0.043047 -0.108319 -0.029118 0.003547 0.079652 0.077337 0.178139 0.176324 0.348242 0.350430 0.342431 0.457969 0.478240 0.514270 0.568327 0.549001 0.642563 0.650447 0.705438 0.717917 0.715215 0.790061 0.786699 0.755449 0.794620 0.813305 0.829596 0.762223 0.694938 0.710197 0.616479 0.600566 0.600896 0.574343 0.512906 0.411250 0.355224 0.337526 0.311452 0.211251 0.234058 0.221078 0.145413 -0.003362 -0.015068 -0.057842 -0.007347 0.102316 0.098795 0.134750 -0.205065 -0.106349 0.022816 -0.063551 -0.159031 -0.066407 0.027023 -0.083619 -0.098123 -0.034927 -0.004996 0.004278 -0.017174 0.006532 -0.011851 0.017742 -0.026986 -0.056317 -0.059211 -0.082195 -0.072308 -0.060369 -0.036396 -0.081267 -0.051784 -0.052638 -0.030879 -0.061173 -0.141829 -0.144222 -0.107189 -0.148942 -0.164341 -0.073009 -0.129342 -0.101757 -0.209237 -0.108824 -0.074469 -0.175532 -0.061224 -0.160490 -0.123063 -0.109821 0.104954 -0.099236 -0.092826 -0.096461 -0.110571 0.058027 -0.069356 -0.098119 0.042185 -0.150691 -0.146377 -0.051263 -0.147145 -0.157205 -0.171627 -0.152264 -0.312071 -0.140552 -0.144491 -0.321703 -0.202680 -0.201654 -0.177756 -0.183092 -0.211932 -0.216652 -0.266321 -0.221668 -0.209545 -0.339433 -0.203205 -0.207615 -0.287685 -0.281417 -0.189611 -0.190431 -0.246592 -0.161478 -0.133249 -0.274434 -0.247250 -0.156170 -0.151985 -0.238532 -0.217092 -0.114026 -0.106933 -0.099175 -0.104532 -0.003895 -0.092466 -0.088507 0.036983 0.033184 -0.053478 -0.048790 0.075964 0.051936 0.032551 0.030609 0.037727 0.041665 0.124582 0.134399 0.141270 0.118302 0.117682 0.170376 0.169970 0.186245 0.192509 0.116053 0.107724 0.200117 0.179542 0.174470 0.201837 0.265284 0.201501 0.211171 0.254451 0.253582 0.252062 0.252350 0.259493 0.256702 0.269924 0.237283 0.241893 0.271455 0.275052 0.269692 0.281507 0.290592 0.292058 0.294220 0.294361 0.295398 0.291964 0.274943 0.275544 0.313547 0.314319 0.308650 0.301401 0.293972 0.321245 0.316667 0.294166 0.296171 0.296573 0.295509 0.296942 0.296121 0.296172 0.295945 0.285726 0.305245 0.303807 0.252593 0.257798 0.259056 0.264983 0.265695 0.281394 0.271251 0.259417 0.258595 0.258463 0.259847 0.255249 0.240213 0.240831 0.248152 0.215547 0.242348 0.242336 0.244722 0.251797 0.258943 0.233545 0.229324 0.228904 0.232119 0.233111 0.248871 0.244376 0.244933 0.243641 0.260330 0.256710 0.256654 0.255366 0.244514 0.242567 0.241430 0.243934 0.243934 0.248676 0.248676 0.248676 0.248676 0.248676 0.253139 0.253139 0.253139 0.253139 0.256564 0.256564 0.256564 0.256564 0.257649 0.257649 0.257649 0.257649 0.257649 0.254788 0.254788 0.254788 0.254788 0.246999 0.246999 0.246999 0.246999 0.235298 0.235298 0.235298 0.235298 0.248035 0.248035 0.248035 0.248035 0.239212 0.239212 0.239212
0.000000 0.000000 0.000000 0.000000 0.000000 0.000000 0.000000 0.000000 0.000000 0.000000 0.000000 0.000000 0.000000 0.000000 0.000000 0.000000 0.000000 0.000000 0.000000 0.000000 0.000000 0.000000 0.000000 0.000000 0.359211 0.359211 0.359211 0.359211 0.359211 0.417029 0.417029 0.417029 0.417029 0.417029 0.417029 0.417029 0.417029 0.417029 0.417029 0.417029 0.417029 0.417029 0.417029 0.417029 0.436436 0.436436 0.436436 0.436436 0.436436 0.436436 0.458831 0.458831 0.458831 0.458831 0.458831 0.436436 0.436436 0.436436 0.436436 0.436436 0.436436 0.436436 0.436436 0.436436 0.436436 0.458831 0.458831 0.458831 0.458831 0.436436 0.436436 0.436436 0.436436 0.458831 0.458831 0.458831 0.417029 0.417029 0.417029 0.417029 0.458831 0.458831 0.458831 0.400000 0.400000 0.400000 0.400000 0.436436 0.436436 0.436436 0.436436 0.436436 0.436436 0.436436 0.436436 0.436436 0.417029 0.417029 0.417029 0.458831 0.458831 0.400000 0.400000 0.400000 0.400000 0.400000 0.400000 0.458831 0.458831 0.384900 0.384900 0.384900 0.436436 0.436436 0.371391 0.371391 0.371391 0.436436 0.436436 0.417029 0.417029 0.359211 0.359211 0.359211 0.417029 0.417029 0.400000 0.400000 0.400000 0.400000 0.400000 0.400000 0.400000 0.400000 0.384900 0.384900 0.384900 0.384900 0.384900 0.384900 0.371391 0.371391 0.371391 0.371391 0.371391 0.371391 0.359211 0.359211 0.359211 0.359211 0.359211 0.359211 0.359211 0.359211 0.348155 0.348155 0.417029 0.348155 0.348155 0.338062 0.338062 0.338062 0.338062 0.417029 0.328798 0.328798 0.328798 0.328798 0.400000 0.328798 0.328798 0.320256 0.320256 0.384900 0.320256 0.320256 0.384900 0.312348 0.312348 0.384900 0.304997 0.304997 0.304997 0.304997 0.371391 0.304997 0.304997 0.371391 0.298142 0.298142 0.359211 0.359211 0.291730 0.291730 0.359211 0.285714 0.285714 0.348155 0.285714 0.285714 0.348155 0.348155 0.280056 0.280056 0.338062 0.274721 0.274721 0.338062 0.338062 0.269680 0.269680 0.328798 0.328798 0.269680 0.269680 0.328798 0.320256 0.320256 0.260378 0.260378 0.320256 0.320256 0.256074 0.256074 0.312348 0.312348 0.312348 0.251976 0.251976 0.304997 0.304997 0.304997 0.304997 0.248069 0.248069 0.298142 0.298142 0.298142 0.298142 0.240772 0.240772 0.291730 0.291730 0.291730 0.291730 0.291730 0.234082 0.234082 0.285714 0.285714 0.285714 0.285714 0.280056 0.280056 0.280056 0.227921 0.227921 0.280056 0.274721 0.274721 0.274721 0.274721 0.274721 0.269680 0.269680 0.269680 0.269680 0.219529 0.219529 0.264906 0.264906 0.264906 0.264906 0.264906 0.260378 0.260378 0.260378 0.260378 0.260378 0.256074 0.256074 0.256074 0.256074 0.256074 0.251976 0.251976 0.251976 0.251976 0.251976 0.248069 0.248069 0.248069 0.248069 0.248069 0.244339 0.244339 0.244339 0.244339 0.244339 0.240772 0.240772 0.240772 0.240772 0.237356 0.237356 0.237356 0.237356 0.237356 0.234082 0.234082 0.234082 0.234082 0.234082 0.230940 0.230940 0.230940 0.230940 0.227921 0.227921 0.227921 0.227921 0.227921 0.225018 0.225018 0.225018 0.225018 0.222222 0.222222 0.222222 0.222222 0.222222 0.219529 0.219529 0.219529 0.219529 0.216930 0.216930 0.216930 0.216930 0.214423 0.214423 0.214423 0.214423 0.214423 0.212000 0.212000 0.212000 0.212000 0.209657 0.209657 0.209657 0.209657 0.207390 0.207390 0.207390 0.207390 0.205196 0.205196 0.205196 0.205196 0.203069 0.203069 0.203069
