# Output from CTFFind version 4.1.14, run on 2024-08-30 16:05:32
# Input file: CtfFind/job005/Movies/20170629_00027_frameImage_PS.mrc ; Number of micrographs: 1
# Pixel size: 1.400 Angstroms ; acceleration voltage: 200.0 keV ; spherical aberration: 1.40 mm ; amplitude contrast: 0.10
# Box size: 512 pixels ; min. res.: 30.0 Angstroms ; max. res.: 5.0 Angstroms ; min. def.: 5000.0 um; max. def. 50000.0 um; num. frames averaged: 1
# 6 lines per micrograph: #1 - spatial frequency (1/Angstroms); #2 - 1D rotational average of spectrum (assuming no astigmatism); #3 - 1D rotational average of spectrum; #4 - CTF fit; #5 - cross-correlation between spectrum and CTF fit; #6 - 2sigma of expected cross correlation of noise
0.000000 0.001396 0.002791 0.004187 0.005582 0.006978 0.008373 0.009769 0.011164 0.012560 0.013955 0.015351 0.016746 0.018142 0.019538 0.020933 0.022329 0.023724 0.025120 0.026515 0.027911 0.029306 0.030702 0.032097 0.033493 0.034888 0.036284 0.037680 0.039075 0.040471 0.041866 0.043262 0.044657 0.046053 0.047448 0.048844 0.050239 0.051635 0.053030 0.054426 0.055822 0.057217 0.058613 0.060008 0.061404 0.062799 0.064195 0.065590 0.066986 0.068381 0.069777 0.071172 0.072568 0.073964 0.075359 0.076755 0.078150 0.079546 0.080941 0.082337 0.083732 0.085128 0.086523 0.087919 0.089314 0.090710 0.092106 0.093501 0.094897 0.096292 0.097688 0.099083 0.100479 0.101874 0.103270 0.104665 0.106061 0.107456 0.108852 0.110247 0.111643 0.113039 0.114434 0.115830 0.117225 0.118621 0.120016 0.121412 0.122807 0.124203 0.125598 0.126994 0.128389 0.129785 0.131181 0.132576 0.133972 0.135367 0.136763 0.138158 0.139554 0.140949 0.142345 0.143740 0.145136 0.146531 0.147927 0.149323 0.150718 0.152114 0.153509 0.154905 0.156300 0.157696 0.159091 0.160487 0.161882 0.163278 0.164673 0.166069 0.167465 0.168860 0.170256 0.171651 0.173047 0.174442 0.175838 0.177233 0.178629 0.180024 0.181420 0.182815 0.184211 0.185607 0.187002 0.188398 0.189793 0.191189 0.192584 0.193980 0.195375 0.196771 0.198166 0.199562 0.200957 0.202353 0.203749 0.205144 0.206540 0.207935 0.209331 0.210726 0.212122 0.213517 0.214913 0.216308 0.217704 0.219099 0.220495 0.221891 0.223286 0.224682 0.226077 0.227473 0.228868 0.230264 0.231659 0.233055 0.234450 0.235846 0.237241 0.238637 0.240033 0.241428 0.242824 0.244219 0.245615 0.247010 0.248406 0.249801 0.251197 0.252592 0.253988 0.255383 0.256779 0.258175 0.259570 0.260966 0.262361 0.263757 0.265152 0.266548 0.267943 0.269339 0.270734 0.272130 0.273525 0.274921 0.276317 0.277712 0.279108 0.280503 0.281899 0.283294 0.284690 0.286085 0.287481 0.288876 0.290272 0.291667 0.293063 0.294458 0.295854 0.297250 0.298645 0.300041 0.301436 0.302832 0.304227 0.305623 0.307018 0.308414 0.309809 0.311205 0.312600 0.313996 0.315392 0.316787 0.318183 0.319578 0.320974 0.322369 0.323765 0.325160 0.326556 0.327951 0.329347 0.330742 0.332138 0.333534 0.334929 0.336325 0.337720 0.339116 0.340511 0.341907 0.343302 0.344698 0.346093 0.347489 0.348884 0.350280 0.351676 0.353071 0.354467 0.355862 0.357258 0.358653 0.360049 0.361444 0.362840 0.364235 0.365631 0.367026 0.368422 0.369818 0.371213 0.372609 0.374004 0.375400 0.376795 0.378191 0.379586 0.380982 0.382377 0.383773 0.385168 0.386564 0.387960 0.389355 0.390751 0.392146 0.393542 0.394937 0.396333 0.397728 0.399124 0.400519 0.401915 0.403310 0.404706 0.406102 0.407497 0.408893 0.410288 0.411684 0.413079 0.414475 0.415870 0.417266 0.418661 0.420057 0.421452 0.422848 0.424244 0.425639 0.427035 0.428430 0.429826 0.431221 0.432617 0.434012 0.435408 0.436803 0.438199 0.439594 0.440990 0.442386 0.443781 0.445177 0.446572 0.447968 0.449363 0.450759 0.452154 0.453550 0.454945 0.456341 0.457736 0.459132 0.460528 0.461923 0.463319 0.464714 0.466110 0.467505 0.468901 0.470296 0.471692 0.473087 0.474483 0.475878 0.477274 0.478669 0.480065 0.481461 0.482856 0.484252 0.485647 0.487043 0.488438 0.489834 0.491229 0.492625 0.494020 0.495416 0.496811 0.498207 0.499603 0.500998 0.502394 0.503789 0.505185
      -0.18000       -0.12340       -0.07608       -0.05919       -0.05206       -0.04592       -0.04366       -0.04099       -0.03920       -0.03805       -0.03671       -0.03617       -0.03514       -0.03459       -0.03413       -0.03359       -0.03330       -0.03277       -0.03258       -0.03226       -0.03201       -0.03179       -0.03154       -0.03720       -0.88586       -0.90283       -0.32026        0.29460        0.91877        0.75106        0.20620       -0.52098       -0.90284       -0.68812       -0.15246        0.45815        0.55874        0.05984       -0.63273       -0.70252       -0.26419        0.19887        0.26005       -0.21778       -0.58404       -0.27983        0.13330        0.20379       -0.36201       -0.44669       -0.05668        0.33093       -0.01966       -0.44577       -0.13101        0.31378        0.27766       -0.28127       -0.09813        0.41629        0.08215       -0.27309        0.12413        0.26390       -0.15683       -0.28556        0.04201       -0.04321       -0.37393        0.05727        0.02826       -0.48952       -0.05738        0.02230       -0.29823        0.02360        0.03196       -0.28641        0.14705        0.01008       -0.16451        0.06473       -0.08653       -0.09119        0.09447       -0.08457       -0.01605       -0.08850       -0.02605        0.00958       -0.05464       -0.06372        0.00016       -0.01812        0.02923        0.00703        0.01645        0.04238        0.01918       -0.02625       -0.00566       -0.03246        0.04501        0.07400        0.01619        0.02799       -0.03200        0.01415       -0.04461       -0.02620       -0.02705       -0.04590       -0.08018       -0.02363        0.02030       -0.03975       -0.06458       -0.01390        0.00362       -0.00700       -0.06161       -0.06156       -0.02442       -0.05197       -0.00515       -0.02805       -0.03461        0.03332       -0.05896        0.00826       -0.04732       -0.06123       -0.03684       -0.04602       -0.05013       -0.01971        0.01079       -0.00782       -0.03150        0.04371        0.01239       -0.00494       -0.00213       -0.02031        0.00552       -0.03341       -0.03077       -0.09398       -0.04331        0.00681       -0.05361       -0.02405       -0.07381       -0.05799        0.00119        0.00897       -0.04784       -0.05893        0.00352       -0.08834       -0.02218       -0.03996       -0.05893       -0.11956       -0.02796        0.02454       -0.05227       -0.02145       -0.05269       -0.03119        0.02119       -0.04118       -0.06014       -0.06488       -0.02386       -0.03387       -0.03818        0.01242       -0.01448       -0.01987       -0.04754       -0.01097       -0.03703       -0.08161       -0.05333       -0.07927       -0.05248       -0.00283       -0.00192        0.02590       -0.05470       -0.04141        0.01392        0.04275       -0.03101       -0.02532       -0.00791       -0.02459       -0.03918        0.00132        0.02618       -0.02137       -0.02767       -0.02102       -0.00971       -0.06332       -0.02844       -0.08646       -0.03692       -0.06370       -0.02954       -0.07603       -0.10188       -0.01125       -0.01186       -0.01306        0.01059       -0.01576       -0.05094       -0.03712        0.01622       -0.01828       -0.02490       -0.01973       -0.01639       -0.01100       -0.03021       -0.03767       -0.04018       -0.03266        0.00640       -0.02822       -0.02770        0.01001       -0.04506       -0.08275       -0.04117       -0.05578       -0.07524       -0.07931       -0.04051       -0.04511       -0.00848       -0.02077       -0.00821        0.00178       -0.03455       -0.03614       -0.00357        0.02885       -0.01043       -0.00716        0.00067       -0.04457       -0.01798       -0.01566       -0.02678       -0.05350       -0.02401       -0.04398       -0.04734        0.00756       -0.01056       -0.02439       -0.06817       -0.10171        0.02437       -0.02995       -0.03875       -0.03878       -0.02330       -0.03294       -0.02273       -0.07008       -0.02042       -0.02482       -0.02542        0.00814        0.02332       -0.04627       -0.10319       -0.06051       -0.00004       -0.04738        0.03877       -0.02002       -0.07527       -0.05223       -0.03557       -0.05872       -0.05584       -0.01414        0.04810        0.00924       -0.10763        0.01895        0.01062       -0.01636       -0.01104       -0.03502        0.00086       -0.04163       -0.02456       -0.04432       -0.04233       -0.08292       -0.09505        0.00170       -0.07481        0.02852       -0.06647       -0.02080        0.02169       -0.02390        0.06627        0.11243       -0.01944       -0.03280       -0.01480       -0.02548       -0.03480       -0.10053       -0.08421       -0.16823        0.01295        0.01044       -0.05333       -0.07796       -0.07980       -0.05047       -0.04517       -0.00519        0.04277       -0.02543        0.03214        0.03424       -0.14620       -0.10306       -0.03601       -0.08057       -0.03385       -0.00970       -0.12909       -0.00168        0.05344       -0.15667       -0.01177        0.12645       -0.02694        0.13490       -0.11567       -0.10248       -0.14154       -0.16751        0.05077        0.07359        0.04207        0.28311        0.11319        0.05734        0.49524       -0.28238       -0.92883
-0.179995 -0.049815 -0.049479 -0.048920 -0.048137 -0.047131 -0.045901 -0.044448 -0.042770 -0.040870 -0.038745 -0.037597 -0.036757 -0.035844 -0.034859 -0.033807 -0.033445 -0.033060 -0.032651 -0.033457 -0.035903 -0.038474 -0.139307 -0.362878 -0.596381 -0.428766 -0.175204 0.124367 0.475011 0.581032 0.115160 -0.305099 -0.591930 -0.587769 -0.139547 0.193460 0.456173 0.016754 -0.395440 -0.579596 -0.292390 0.078262 0.181447 -0.162105 -0.420001 -0.362674 0.078200 0.068719 -0.197525 -0.424932 -0.112376 0.257041 -0.005509 -0.298554 -0.191316 0.207681 0.295256 -0.127847 -0.181715 0.322614 0.202109 -0.253489 -0.008069 0.325328 -0.067000 -0.327364 0.043364 -0.011745 -0.417122 0.024369 0.204405 -0.470240 -0.189418 0.139736 -0.461494 -0.074065 0.223127 -0.443368 0.191904 0.234054 -0.352570 0.335888 -0.153662 -0.104376 0.311664 -0.233503 0.111629 -0.007953 -0.135266 0.210444 -0.202611 0.069750 -0.097849 -0.038516 0.003050 0.015057 0.075114 -0.025634 0.006645 0.026287 -0.043289 -0.025134 0.061249 0.045860 0.081895 -0.019907 0.007506 0.034086 -0.016659 -0.110243 -0.007109 -0.050979 -0.055267 -0.028223 0.006384 -0.043889 -0.053058 -0.006471 0.063544 -0.062324 -0.041857 -0.062927 0.011339 -0.049522 -0.024952 0.016125 -0.038774 0.000427 0.005681 -0.062349 -0.002928 0.001301 -0.030695 -0.060885 -0.068216 0.062135 0.017172 -0.005837 0.034558 -0.042310 -0.012548 -0.004177 -0.007023 -0.003237 -0.004675 -0.058115 -0.061555 -0.000441 -0.028877 -0.060214 -0.044853 -0.031928 -0.010797 -0.143978 0.010406 -0.008291 -0.049947 -0.023718 0.008441 -0.057547 -0.003283 -0.035066 -0.113904 -0.048787 -0.064533 0.062681 -0.099362 -0.122573 -0.092536 0.032454 -0.068404 -0.037558 -0.024557 -0.053804 -0.038049 -0.114185 0.056440 0.013396 -0.034208 -0.072858 -0.002692 0.033186 -0.019444 -0.016573 -0.088575 -0.080655 -0.056114 -0.040880 -0.003079 -0.060514 -0.039999 -0.023861 -0.072710 -0.000811 -0.062754 0.018035 -0.098253 -0.053009 -0.029858 0.017196 0.004713 -0.019707 0.032896 -0.057206 0.008938 -0.025862 -0.044179 -0.078245 -0.072599 -0.084215 -0.049044 -0.093570 -0.035773 -0.060329 -0.082329 -0.036035 -0.015348 -0.008980 -0.063311 0.046113 0.012273 0.017205 -0.056736 -0.041921 -0.034444 -0.011186 -0.036741 -0.019021 0.075880 -0.087028 -0.049226 -0.052498 0.005031 0.011080 -0.050253 -0.135358 -0.031678 -0.106055 -0.028522 -0.017096 -0.046088 -0.045029 -0.034375 -0.080614 -0.007153 -0.007635 -0.023619 0.059980 0.037995 0.037888 -0.013355 0.015227 0.071509 -0.039687 0.039683 -0.081485 -0.043252 -0.011682 -0.045105 -0.103148 -0.063799 -0.017487 -0.013258 -0.009714 0.009765 -0.022472 -0.118948 0.013807 0.048029 0.060075 -0.027454 -0.059259 -0.006273 -0.036436 0.064815 -0.061627 -0.089524 0.045737 -0.040567 0.082951 0.022167 -0.123733 -0.019644 0.034178 -0.080418 -0.110231 -0.044818 -0.021062 0.004098 -0.080095 -0.206833 0.007441 0.086653 0.015240 -0.166490 -0.118347 -0.052659 -0.049728 0.031484 -0.029879 0.051317 -0.041786 0.123319 -0.141481 -0.077300 -0.112150 -0.104717 -0.170439 -0.122943 0.019773 -0.092791 0.105879 0.070311 -0.131275 0.086309 0.178364 0.069414 -0.088720 -0.103043 0.052072 -0.013597 -0.144704 0.066669 -0.147555 -0.228236 0.090843 0.062429 -0.131418 0.065428 -0.078471 -0.215072 -0.267813 0.108408 -0.026682 0.050469 -0.163591 -0.165148 -0.092569 -0.371352 -0.099895 0.169048 -0.009494 -0.084535 0.041950 -0.010833 -0.159478 0.262778 0.064685 -0.127480 0.246331 -0.141912 0.202417 -0.574287 0.154716 0.140120 -0.821886 0.119159 0.143939 -0.056684 0.760532 0.408619 -0.379940 0.000000
0.100000 0.106844 0.127345 0.161388 0.208718 0.268844 0.340909 0.423527 0.514607 0.611159 0.709127 0.803264 0.887094 0.953012 0.992568 0.996995 0.958005 0.868869 0.725736 0.529099 0.285202 0.007139 0.284700 0.563222 0.796583 0.951697 0.999249 0.919746 0.709709 0.386642 0.008859 0.415465 0.759013 0.965896 0.980281 0.781647 0.397677 0.092944 0.571948 0.907973 0.993857 0.785113 0.326055 0.249687 0.751660 0.994144 0.869104 0.402255 0.236885 0.787055 0.999875 0.758285 0.152057 0.538874 0.964769 0.885628 0.319256 0.436464 0.946427 0.889193 0.274280 0.525755 0.985236 0.773281 0.011451 0.767410 0.979277 0.437870 0.456534 0.987905 0.697414 0.195337 0.924098 0.823285 0.042235 0.874960 0.862134 0.010980 0.879635 0.835321 0.102548 0.934850 0.727722 0.312121 0.994249 0.495462 0.609162 0.963443 0.098747 0.898084 0.716142 0.428928 0.991855 0.173366 0.894903 0.672290 0.541649 0.947679 0.090927 0.991666 0.329563 0.863371 0.650566 0.641632 0.855451 0.394677 0.960877 0.168362 0.997462 0.013066 0.996489 0.140528 0.983008 0.213003 0.973406 0.231939 0.975140 0.197956 0.986980 0.110066 0.998966 0.032849 0.992232 0.228096 0.939705 0.463086 0.809544 0.708159 0.573630 0.911263 0.222605 0.999939 0.214286 0.897643 0.652097 0.558880 0.951674 0.017792 0.958236 0.573950 0.584886 0.962005 0.085006 0.895962 0.750431 0.314677 0.995463 0.500434 0.568319 0.988950 0.314829 0.694733 0.963192 0.234888 0.724986 0.962434 0.271041 0.669472 0.987653 0.418917 0.510373 0.996749 0.652062 0.215805 0.905256 0.895022 0.218886 0.608194 0.998440 0.702434 0.055669 0.768761 0.993503 0.614805 0.118911 0.775329 0.997467 0.687553 0.029877 0.632732 0.983115 0.875443 0.381247 0.267520 0.795330 0.999876 0.821619 0.347763 0.238361 0.733410 0.984196 0.929320 0.604777 0.119303 0.386799 0.783755 0.983898 0.956065 0.723734 0.350635 0.079463 0.483125 0.793015 0.967260 0.991728 0.877139 0.652426 0.356716 0.031807 0.284067 0.560332 0.776133 0.920427 0.991032 0.992747 0.935183 0.830648 0.692411 0.533227 0.364408 0.195290 0.033134 0.117003 0.251969 0.370136 0.471207 0.555688 0.624704 0.679716 0.722256 0.753785 0.775564 0.788584 0.793470 0.790465 0.779437 0.759814 0.730763 0.691073 0.639331 0.574043 0.493748 0.397239 0.283756 0.153575 0.007783 0.150857 0.317861 0.486662 0.648700 0.793338 0.908406 0.980970 0.998582 0.950883 0.831536 0.640334 0.385059 0.082820 0.239837 0.548003 0.801906 0.961848 0.995132 0.883628 0.630604 0.265289 0.157332 0.562284 0.866863 0.998348 0.913304 0.614476 0.158870 0.347809 0.772365 0.989031 0.919399 0.565963 0.024014 0.536380 0.920286 0.977372 0.666889 0.089699 0.533589 0.941821 0.944465 0.519232 0.155933 0.765365 0.999603 0.719265 0.050515 0.654907 0.996831 0.758486 0.059125 0.685331 0.999942 0.660174 0.129788 0.838078 0.955667 0.374321 0.494151 0.990055 0.708116 0.149992 0.891305 0.881729 0.105130 0.771422 0.952693 0.248472 0.697554 0.972200 0.283033 0.698017 0.962801 0.211637 0.772499 0.913009 0.030226 0.892214 0.780102 0.258817 0.990176 0.505784 0.615208 0.956272 0.057019 0.921515 0.665820 0.500753 0.976168 0.074922 0.937027 0.586395 0.633753 0.904539 0.205038 0.999880 0.223690 0.911546 0.572944 0.707728 0.811692 0.455623 0.944663 0.205809 0.995765 0.011189 0.994722 0.181537 0.968797 0.301825 0.938999 0.374324 0.919240 0.402140 0.916611 0.386692
1.000000 1.000000 1.000000 1.000000 1.000000 1.000000 1.000000 1.000000 1.000000 1.000000 1.000000 1.000000 1.000000 1.000000 1.000000 1.000000 1.000000 1.000000 1.000000 1.000000 1.000000 1.000000 1.000000 1.000000 -0.418615 -0.418615 -0.522941 -0.522941 -0.522941 -0.522941 -0.522941 -0.522941 -0.522941 -0.522941 -0.542963 -0.499356 -0.518707 -0.492121 -0.529027 -0.465518 -0.478151 -0.494447 -0.448583 -0.412266 -0.412058 -0.360830 -0.364139 -0.406519 -0.339158 -0.336935 -0.295671 -0.234762 -0.311487 -0.228120 -0.049703 0.011974 -0.064079 0.055148 0.022976 0.091889 0.132295 0.120017 0.231444 0.213643 0.321813 0.376499 0.399758 0.528177 0.534896 0.612309 0.653486 0.691757 0.791824 0.738496 0.728029 0.775206 0.753538 0.771306 0.750660 0.778890 0.739174 0.693662 0.575692 0.585188 0.509169 0.471439 0.442823 0.370420 0.383339 0.360654 0.219538 0.215799 0.285511 0.261495 0.264780 0.099640 0.150350 0.196395 0.213464 0.268380 0.107287 0.188362 0.186353 0.236981 0.273350 0.366213 0.300357 0.254861 0.297704 0.356059 0.355089 0.365751 0.372937 0.411959 0.385794 0.334605 0.331423 0.268236 0.197821 0.110682 0.168270 0.061998 0.098722 0.018299 0.022793 0.034934 0.072335 0.081242 0.090148 0.052669 0.011763 0.061918 -0.217450 0.068992 -0.013602 -0.028737 -0.001951 -0.168582 -0.114271 -0.128388 -0.116634 -0.132421 -0.002103 -0.099394 -0.111576 0.121674 -0.122039 -0.121728 -0.064935 -0.018624 0.047064 0.015518 0.058429 -0.088011 0.069668 0.087833 -0.104970 -0.036677 -0.115398 -0.075862 -0.050811 -0.011115 0.013685 -0.129193 -0.007333 -0.039111 0.000893 0.006183 -0.005736 0.045454 -0.001275 0.050086 0.071161 -0.007990 0.003647 0.057382 0.077573 0.082741 0.109536 0.143625 0.086586 0.068921 0.154597 0.151350 0.170524 0.103922 0.131672 0.151740 0.125318 0.116030 0.125417 0.145897 0.163752 0.265265 0.291813 0.292216 0.187778 0.179250 0.251558 0.254051 0.199700 0.213812 0.223531 0.156593 0.153126 0.231939 0.234352 0.240620 0.233989 0.225929 0.216836 0.215111 0.179783 0.255411 0.203882 0.173487 0.168019 0.164317 0.147130 0.151093 0.162519 0.173152 0.176369 0.176311 0.179191 0.176684 0.171445 0.175102 0.258510 0.238799 0.243853 0.249377 0.251715 0.249163 0.250157 0.248197 0.274046 0.263037 0.260082 0.260658 0.223642 0.232411 0.270362 0.267933 0.259475 0.264971 0.268446 0.279788 0.267122 0.259428 0.257449 0.199824 0.189526 0.179851 0.179653 0.178114 0.209612 0.200962 0.130272 0.127533 0.120315 0.120374 0.125650 0.143425 0.143778 0.152555 0.153936 0.144169 0.153109 0.179412 0.174536 0.179417 0.177600 0.177263 0.182973 0.208449 0.124683 0.119514 0.108906 0.109362 0.105593 0.097784 0.087114 0.072199 0.023171 0.011605 -0.007637 -0.012369 -0.053387 -0.056888 -0.062910 -0.100018 -0.092254 -0.054663 -0.049431 -0.055118 -0.049794 -0.040346 -0.044474 -0.055633 -0.089687 -0.105602 -0.136810 -0.138746 -0.128184 -0.113309 -0.102202 -0.071687 -0.068840 -0.054372 -0.036248 -0.075199 -0.074161 -0.055110 -0.065165 -0.048537 -0.055351 -0.044314 -0.049878 -0.041971 -0.041971 -0.041971 -0.041971 -0.030496 -0.030496 -0.030496 -0.030496 -0.023292 -0.023292 -0.023292 -0.034698 -0.034698 -0.034698 -0.034698 -0.037525 -0.037525 -0.037525 -0.028587 -0.028587 -0.028587 -0.028587 -0.014544 -0.014544 -0.014544 -0.018225 -0.018225 -0.018225 -0.018225 -0.029225 -0.029225 -0.029225 -0.014000 -0.014000 -0.014000 -0.014000 -0.016578 -0.016578 -0.016578 -0.009235 -0.009235 -0.009235 0.007209 0.007209
0.000000 0.000000 0.000000 0.000000 0.000000 0.000000 0.000000 0.000000 0.000000 0.000000 0.000000 0.000000 0.000000 0.000000 0.000000 0.000000 0.000000 0.000000 0.000000 0.000000 0.000000 0.000000 0.000000 0.000000 0.371391 0.371391 0.417029 0.417029 0.417029 0.417029 0.417029 0.417029 0.417029 0.417029 0.458831 0.458831 0.458831 0.458831 0.458831 0.458831 0.436436 0.436436 0.436436 0.436436 0.436436 0.436436 0.458831 0.458831 0.458831 0.458831 0.436436 0.436436 0.436436 0.436436 0.436436 0.458831 0.458831 0.458831 0.458831 0.458831 0.458831 0.458831 0.458831 0.458831 0.458831 0.458831 0.436436 0.436436 0.436436 0.436436 0.458831 0.458831 0.458831 0.458831 0.458831 0.458831 0.458831 0.458831 0.458831 0.436436 0.436436 0.436436 0.436436 0.436436 0.436436 0.458831 0.458831 0.417029 0.417029 0.417029 0.458831 0.458831 0.400000 0.400000 0.400000 0.458831 0.458831 0.400000 0.400000 0.400000 0.458831 0.458831 0.436436 0.436436 0.436436 0.436436 0.436436 0.436436 0.371391 0.371391 0.371391 0.417029 0.417029 0.417029 0.417029 0.400000 0.400000 0.400000 0.400000 0.400000 0.400000 0.458831 0.384900 0.384900 0.384900 0.384900 0.384900 0.384900 0.371391 0.371391 0.371391 0.371391 0.458831 0.359211 0.359211 0.359211 0.359211 0.436436 0.359211 0.359211 0.348155 0.348155 0.417029 0.348155 0.348155 0.417029 0.338062 0.338062 0.338062 0.338062 0.400000 0.328798 0.328798 0.400000 0.328798 0.328798 0.400000 0.320256 0.320256 0.384900 0.384900 0.312348 0.312348 0.384900 0.304997 0.304997 0.371391 0.371391 0.304997 0.304997 0.371391 0.298142 0.298142 0.359211 0.359211 0.291730 0.291730 0.359211 0.348155 0.348155 0.285714 0.285714 0.348155 0.348155 0.338062 0.280056 0.280056 0.338062 0.338062 0.338062 0.269680 0.269680 0.328798 0.328798 0.328798 0.328798 0.264906 0.264906 0.320256 0.320256 0.320256 0.320256 0.312348 0.256074 0.256074 0.312348 0.312348 0.312348 0.304997 0.304997 0.304997 0.304997 0.304997 0.244339 0.244339 0.298142 0.298142 0.298142 0.298142 0.291730 0.291730 0.291730 0.291730 0.291730 0.285714 0.285714 0.285714 0.285714 0.285714 0.280056 0.280056 0.280056 0.280056 0.280056 0.274721 0.274721 0.274721 0.274721 0.274721 0.269680 0.269680 0.269680 0.269680 0.269680 0.264906 0.264906 0.264906 0.264906 0.264906 0.260378 0.260378 0.260378 0.260378 0.256074 0.256074 0.256074 0.256074 0.256074 0.251976 0.251976 0.251976 0.251976 0.248069 0.248069 0.248069 0.248069 0.248069 0.244339 0.244339 0.244339 0.244339 0.240772 0.240772 0.240772 0.240772 0.240772 0.237356 0.237356 0.237356 0.237356 0.234082 0.234082 0.234082 0.234082 0.230940 0.230940 0.230940 0.230940 0.227921 0.227921 0.227921 0.227921 0.225018 0.225018 0.225018 0.225018 0.222222 0.222222 0.222222 0.222222 0.219529 0.219529 0.219529 0.219529 0.216930 0.216930 0.216930 0.216930 0.214423 0.214423 0.214423 0.214423 0.212000 0.212000 0.212000 0.209657 0.209657 0.209657 0.209657 0.207390 0.207390 0.207390 0.207390 0.205196 0.205196 0.205196 0.205196 0.203069 0.203069 0.203069 0.201008 0.201008 0.201008 0.201008 0.199007 0.199007 0.199007 0.197066 0.197066 0.197066 0.197066 0.195180 0.195180 0.195180 0.193347 0.193347 0.193347 0.193347 0.191565 0.191565 0.191565 0.189832 0.189832 0.189832 0.189832 0.188144 0.188144 0.188144 0.186501 0.186501 0.186501 0.184900 0.184900
