# Output from CTFFind version 4.1.14, run on 2024-08-30 16:05:31
# Input file: CtfFind/job005/Movies/20170629_00029_frameImage_PS.mrc ; Number of micrographs: 1
# Pixel size: 1.400 Angstroms ; acceleration voltage: 200.0 keV ; spherical aberration: 1.40 mm ; amplitude contrast: 0.10
# Box size: 512 pixels ; min. res.: 30.0 Angstroms ; max. res.: 5.0 Angstroms ; min. def.: 5000.0 um; max. def. 50000.0 um; num. frames averaged: 1
# 6 lines per micrograph: #1 - spatial frequency (1/Angstroms); #2 - 1D rotational average of spectrum (assuming no astigmatism); #3 - 1D rotational average of spectrum; #4 - CTF fit; #5 - cross-correlation between spectrum and CTF fit; #6 - 2sigma of expected cross correlation of noise
0.000000 0.001396 0.002791 0.004187 0.005582 0.006978 0.008373 0.009769 0.011164 0.012560 0.013955 0.015351 0.016746 0.018142 0.019538 0.020933 0.022329 0.023724 0.025120 0.026515 0.027911 0.029306 0.030702 0.032097 0.033493 0.034888 0.036284 0.037680 0.039075 0.040471 0.041866 0.043262 0.044657 0.046053 0.047448 0.048844 0.050239 0.051635 0.053030 0.054426 0.055822 0.057217 0.058613 0.060008 0.061404 0.062799 0.064195 0.065590 0.066986 0.068381 0.069777 0.071172 0.072568 0.073964 0.075359 0.076755 0.078150 0.079546 0.080941 0.082337 0.083732 0.085128 0.086523 0.087919 0.089314 0.090710 0.092106 0.093501 0.094897 0.096292 0.097688 0.099083 0.100479 0.101874 0.103270 0.104665 0.106061 0.107456 0.108852 0.110247 0.111643 0.113039 0.114434 0.115830 0.117225 0.118621 0.120016 0.121412 0.122807 0.124203 0.125598 0.126994 0.128389 0.129785 0.131181 0.132576 0.133972 0.135367 0.136763 0.138158 0.139554 0.140949 0.142345 0.143740 0.145136 0.146531 0.147927 0.149323 0.150718 0.152114 0.153509 0.154905 0.156300 0.157696 0.159091 0.160487 0.161882 0.163278 0.164673 0.166069 0.167465 0.168860 0.170256 0.171651 0.173047 0.174442 0.175838 0.177233 0.178629 0.180024 0.181420 0.182815 0.184211 0.185607 0.187002 0.188398 0.189793 0.191189 0.192584 0.193980 0.195375 0.196771 0.198166 0.199562 0.200957 0.202353 0.203749 0.205144 0.206540 0.207935 0.209331 0.210726 0.212122 0.213517 0.214913 0.216308 0.217704 0.219099 0.220495 0.221891 0.223286 0.224682 0.226077 0.227473 0.228868 0.230264 0.231659 0.233055 0.234450 0.235846 0.237241 0.238637 0.240033 0.241428 0.242824 0.244219 0.245615 0.247010 0.248406 0.249801 0.251197 0.252592 0.253988 0.255383 0.256779 0.258175 0.259570 0.260966 0.262361 0.263757 0.265152 0.266548 0.267943 0.269339 0.270734 0.272130 0.273525 0.274921 0.276317 0.277712 0.279108 0.280503 0.281899 0.283294 0.284690 0.286085 0.287481 0.288876 0.290272 0.291667 0.293063 0.294458 0.295854 0.297250 0.298645 0.300041 0.301436 0.302832 0.304227 0.305623 0.307018 0.308414 0.309809 0.311205 0.312600 0.313996 0.315392 0.316787 0.318183 0.319578 0.320974 0.322369 0.323765 0.325160 0.326556 0.327951 0.329347 0.330742 0.332138 0.333534 0.334929 0.336325 0.337720 0.339116 0.340511 0.341907 0.343302 0.344698 0.346093 0.347489 0.348884 0.350280 0.351676 0.353071 0.354467 0.355862 0.357258 0.358653 0.360049 0.361444 0.362840 0.364235 0.365631 0.367026 0.368422 0.369818 0.371213 0.372609 0.374004 0.375400 0.376795 0.378191 0.379586 0.380982 0.382377 0.383773 0.385168 0.386564 0.387960 0.389355 0.390751 0.392146 0.393542 0.394937 0.396333 0.397728 0.399124 0.400519 0.401915 0.403310 0.404706 0.406102 0.407497 0.408893 0.410288 0.411684 0.413079 0.414475 0.415870 0.417266 0.418661 0.420057 0.421452 0.422848 0.424244 0.425639 0.427035 0.428430 0.429826 0.431221 0.432617 0.434012 0.435408 0.436803 0.438199 0.439594 0.440990 0.442386 0.443781 0.445177 0.446572 0.447968 0.449363 0.450759 0.452154 0.453550 0.454945 0.456341 0.457736 0.459132 0.460528 0.461923 0.463319 0.464714 0.466110 0.467505 0.468901 0.470296 0.471692 0.473087 0.474483 0.475878 0.477274 0.478669 0.480065 0.481461 0.482856 0.484252 0.485647 0.487043 0.488438 0.489834 0.491229 0.492625 0.494020 0.495416 0.496811 0.498207 0.499603 0.500998 0.502394 0.503789 0.505185
      -0.18493       -0.13061       -0.08519       -0.06897       -0.06213       -0.05624       -0.05407       -0.05151       -0.04980       -0.04868       -0.04740       -0.04688       -0.04589       -0.04537       -0.04493       -0.04441       -0.04413       -0.04362       -0.04344       -0.04313       -0.04289       -0.04268       -0.04244       -0.04693       -0.59988       -0.06311        0.57355        0.90707        0.52748       -0.27980       -0.96047       -0.90006       -0.39763        0.31133        0.44741       -0.04242       -0.66125       -0.73399       -0.16309        0.38839        0.32505       -0.38927       -0.65341       -0.22701        0.27257        0.08397       -0.45581       -0.33667        0.22552        0.33400       -0.22008       -0.37209        0.15482        0.17430       -0.35196       -0.12983        0.29213       -0.03835       -0.33918        0.18833        0.30478       -0.22333       -0.05370        0.25422       -0.23154       -0.11853        0.15688       -0.24879       -0.19101        0.03993       -0.28736       -0.10343       -0.06087       -0.33056       -0.07242       -0.19156       -0.13722       -0.11223       -0.16857       -0.01744        0.04142       -0.10501       -0.06703        0.01847       -0.01776       -0.06168       -0.04384       -0.03100       -0.00070       -0.01734        0.02694       -0.04376       -0.04831        0.00245       -0.04745       -0.08070       -0.06428        0.06128        0.06510        0.01647        0.10452        0.03652       -0.06815       -0.01493       -0.01092       -0.01958       -0.07070       -0.07750       -0.03607       -0.08279       -0.07810       -0.04043       -0.05144       -0.03452       -0.02791       -0.08732       -0.03406       -0.03473       -0.04447       -0.10572       -0.05724       -0.02267       -0.02198       -0.02996       -0.01763       -0.01878       -0.04617       -0.02869       -0.07284       -0.04300       -0.02197        0.02315        0.06850       -0.02593       -0.06427        0.00496       -0.04535       -0.00159       -0.05634       -0.06920       -0.03067       -0.07587       -0.05832       -0.06242       -0.02199       -0.01362       -0.00754       -0.03609       -0.03784       -0.03114       -0.02711       -0.01986       -0.02171       -0.09375        0.02464       -0.01494        0.00672       -0.03339       -0.05706       -0.09979       -0.06678       -0.05366       -0.10998       -0.04610       -0.07961       -0.04380       -0.03360       -0.02568       -0.04612       -0.08261       -0.03852       -0.03885       -0.06035       -0.04015       -0.04078       -0.06873       -0.07716       -0.06956        0.01096       -0.02336       -0.05289       -0.04742       -0.04958       -0.04383        0.00281       -0.04016       -0.04196       -0.01977       -0.03732        0.00200       -0.01473        0.03343       -0.04534       -0.07596       -0.06002       -0.04484       -0.08762       -0.04904       -0.00260       -0.02121       -0.01291       -0.07493       -0.07753       -0.01972       -0.02911       -0.03117       -0.03829       -0.00987        0.01821       -0.05392       -0.02916       -0.05913       -0.09287       -0.07261       -0.03978       -0.08283       -0.05486       -0.02072       -0.04918       -0.08051       -0.02829       -0.02193       -0.03457       -0.05876       -0.01725       -0.03205       -0.02663       -0.01225       -0.01106       -0.03164       -0.02206        0.02399       -0.03197       -0.02602       -0.03366       -0.06465       -0.04745       -0.05400       -0.02439       -0.03861       -0.07216       -0.05674       -0.06181       -0.03712       -0.07470       -0.05099       -0.04856       -0.01485       -0.03673       -0.02466       -0.05611       -0.06345       -0.02379       -0.03504       -0.03598       -0.03145       -0.03247       -0.03569       -0.07296       -0.05167       -0.04850       -0.02713       -0.03513        0.00199       -0.03790       -0.02552       -0.05586       -0.00080       -0.05443       -0.01881       -0.06006       -0.02307       -0.02685        0.04232        0.02078       -0.06894       -0.06936       -0.02011       -0.01648       -0.03760       -0.02787       -0.03751       -0.02779       -0.05812       -0.06603       -0.09850       -0.07180       -0.04698       -0.10223       -0.00889       -0.04602       -0.07326       -0.03726       -0.00146        0.00731       -0.06415       -0.01762       -0.02366       -0.03301       -0.08154       -0.04254       -0.07024        0.02385       -0.02917       -0.06837        0.01247       -0.07277       -0.07828        0.02070       -0.03229       -0.02697       -0.09241       -0.14821       -0.07464       -0.00363       -0.03269       -0.14292        0.05337       -0.06181       -0.11340       -0.01571        0.10163        0.04978        0.03340       -0.09319       -0.01408       -0.04450       -0.11343        0.02359       -0.00697        0.05270       -0.01865       -0.02603       -0.12736       -0.20717       -0.07556       -0.07444       -0.08368       -0.07232        0.12150       -0.01975        0.03131       -0.10366       -0.06770       -0.08213       -0.04082       -0.01467       -0.24252       -0.03052        0.07845       -0.06867       -0.13830       -0.02997        0.07707       -0.10764       -0.06056       -0.06960       -0.05739       -0.01312        0.27812        0.17380        0.11487        0.08339
-0.184927 -0.060007 -0.059684 -0.059147 -0.058395 -0.057429 -0.056247 -0.054851 -0.053240 -0.051414 -0.049373 -0.048199 -0.047411 -0.046555 -0.045630 -0.044637 -0.044273 -0.043902 -0.043508 -0.043935 -0.045567 -0.047282 -0.079884 -0.152969 -0.229302 0.051011 0.415607 0.487777 0.221271 -0.103252 -0.546531 -0.738930 -0.314333 0.020816 0.218761 -0.028677 -0.551778 -0.485121 -0.253446 0.249836 0.124830 -0.207187 -0.546385 -0.226446 0.076137 0.117327 -0.355424 -0.270605 0.076979 0.298878 -0.136449 -0.366303 0.083987 0.121921 -0.200704 -0.184282 0.185863 0.070106 -0.293892 0.057292 0.331682 -0.114503 -0.147918 0.233987 -0.121474 -0.208462 0.176473 -0.251541 -0.229200 0.203579 -0.374414 -0.168678 0.001997 -0.408830 0.042635 -0.138432 -0.232339 0.015533 -0.313663 -0.039151 0.055695 -0.209917 0.022831 -0.064070 0.016406 -0.014839 -0.141206 -0.025118 0.022694 -0.033785 0.066266 -0.052072 -0.069438 0.017777 -0.056633 -0.081925 -0.057149 0.031574 0.054533 -0.005489 0.081134 0.052488 -0.050364 -0.017582 -0.034760 0.034966 -0.085857 -0.109411 -0.069365 -0.086019 -0.048863 -0.064760 -0.048062 -0.118268 0.000076 -0.067756 -0.051111 -0.045507 0.005834 -0.113362 -0.062396 -0.006966 0.002866 -0.077289 -0.026589 -0.013417 -0.025019 -0.064310 -0.043659 -0.094134 -0.028990 0.006115 0.022510 -0.027223 -0.031819 -0.006003 -0.027142 -0.047347 -0.028060 0.001364 -0.101077 -0.033187 -0.073436 -0.016491 -0.043075 -0.030769 0.037707 -0.043679 -0.056585 -0.032613 -0.031090 -0.031860 -0.057381 0.000867 -0.098114 0.004544 -0.003901 -0.012613 -0.047198 -0.090755 -0.063072 -0.081949 -0.044382 -0.108274 -0.041800 -0.070570 -0.034445 -0.025930 -0.080689 -0.015413 -0.085861 -0.019195 -0.032356 -0.086381 -0.030116 -0.071825 -0.078642 -0.094234 -0.039575 -0.001542 -0.022337 -0.032951 -0.042779 -0.048445 -0.032376 -0.019759 -0.005371 -0.062128 -0.058607 -0.047726 0.043771 0.041960 -0.035061 -0.062568 -0.131223 -0.017718 -0.046897 -0.028992 -0.043149 -0.038078 -0.035685 -0.019731 -0.042430 -0.023606 -0.014276 -0.017320 -0.027177 0.006279 -0.087039 -0.023126 -0.015975 -0.134897 -0.033070 -0.088122 -0.060542 0.000661 -0.045186 -0.100314 0.053753 -0.117556 -0.051801 -0.018873 -0.041410 -0.113550 -0.063286 -0.022441 -0.040316 -0.081158 -0.024527 -0.030529 -0.033452 0.023253 -0.047189 0.023063 -0.065975 -0.050426 -0.035444 -0.091447 -0.095160 -0.046309 -0.062119 -0.055943 -0.045496 -0.072023 -0.032085 -0.040916 -0.088242 -0.058510 -0.030531 0.002960 0.007061 -0.007653 -0.051970 -0.043150 -0.029557 -0.063446 -0.123981 -0.024372 -0.071142 -0.109356 0.021148 0.070344 -0.082350 -0.081046 -0.094626 0.047007 -0.015259 -0.009266 -0.023319 -0.031661 -0.104158 0.083042 -0.006544 -0.002778 0.044083 -0.020903 -0.086873 -0.012845 0.017688 0.009844 -0.008775 -0.022936 -0.060287 -0.079937 -0.173947 -0.001582 -0.047938 -0.276101 -0.060572 -0.149653 -0.022110 -0.018947 -0.119934 0.043786 0.061095 -0.107265 -0.038440 -0.117242 0.023883 0.031112 -0.050434 -0.037792 -0.229523 0.175197 0.007190 -0.040435 -0.127028 -0.000011 -0.092510 0.051196 -0.177383 -0.066665 -0.094366 -0.179300 -0.002518 -0.127192 -0.097993 -0.083719 -0.175848 -0.167950 -0.115601 0.010639 0.140484 0.035423 -0.113237 0.004834 -0.097111 -0.058434 -0.044105 -0.076455 0.036783 0.306405 -0.045149 -0.097139 -0.078483 -0.135918 0.209411 0.012663 0.014916 -0.045192 0.223651 0.009012 0.038977 -0.066247 -0.109317 -0.167990 -0.011367 -0.232765 -0.448196 -0.256014 -0.213419 0.019174 0.021215 0.096880 -0.035155 -0.180591 -0.114759 -0.163059 0.847615 0.035368 0.000000 0.187842 0.000000
0.100000 0.107547 0.130150 0.167665 0.219769 0.285829 0.364728 0.454655 0.552871 0.655468 0.757172 0.851227 0.929420 0.982331 0.999862 0.972130 0.890724 0.750322 0.550523 0.297680 0.006361 0.300016 0.589911 0.826216 0.970894 0.991577 0.869409 0.606721 0.232540 0.196431 0.601425 0.894814 0.999886 0.873641 0.526455 0.031050 0.485968 0.872918 0.998249 0.800191 0.322597 0.281946 0.792725 0.999940 0.796808 0.244602 0.428579 0.911983 0.956040 0.512189 0.211258 0.829712 0.982256 0.553150 0.223099 0.868046 0.948653 0.382435 0.461077 0.979097 0.766729 0.043260 0.827925 0.938740 0.253795 0.660032 0.989844 0.408195 0.566553 0.997592 0.433519 0.580789 0.991289 0.333881 0.698250 0.945839 0.096470 0.873340 0.786954 0.279184 0.996477 0.422140 0.716112 0.888599 0.169078 0.992607 0.387739 0.790227 0.787048 0.420011 0.976511 0.015947 0.985544 0.334789 0.878784 0.596034 0.721669 0.767921 0.564010 0.868671 0.437091 0.920493 0.357476 0.941181 0.332364 0.940075 0.363549 0.916635 0.448731 0.860538 0.579881 0.753325 0.739121 0.572842 0.893405 0.302124 0.991175 0.055952 0.966421 0.460656 0.756703 0.819934 0.338951 0.997746 0.224497 0.860295 0.756799 0.365367 0.999785 0.340528 0.744774 0.903840 0.029208 0.921592 0.745558 0.268446 0.979921 0.635094 0.371267 0.990660 0.620068 0.347672 0.978713 0.705635 0.194759 0.916989 0.858073 0.096550 0.733344 0.987613 0.499431 0.345266 0.936730 0.883169 0.248886 0.535162 0.979128 0.835371 0.215252 0.514227 0.958699 0.905111 0.406766 0.275469 0.820533 0.998201 0.755914 0.216341 0.395115 0.849864 0.999210 0.813998 0.376126 0.164305 0.644966 0.939862 0.987542 0.796162 0.429326 0.018783 0.449857 0.783189 0.968292 0.988566 0.857395 0.609641 0.291402 0.049616 0.371214 0.641443 0.840292 0.959338 0.999903 0.970442 0.883833 0.754930 0.598500 0.428015 0.254713 0.087222 0.068244 0.207905 0.329694 0.433165 0.518842 0.587952 0.641919 0.682351 0.710652 0.728007 0.735157 0.732415 0.719735 0.696504 0.661697 0.614098 0.552149 0.474302 0.379262 0.266145 0.134997 0.013035 0.174951 0.345818 0.518196 0.682182 0.825518 0.934160 0.993306 0.989109 0.910805 0.753308 0.519769 0.223798 0.109225 0.442970 0.732956 0.932310 0.999752 0.909390 0.660067 0.281876 0.162962 0.587079 0.893640 0.999643 0.861180 0.494256 0.017849 0.537046 0.904486 0.990648 0.746220 0.234352 0.374096 0.850810 0.995489 0.726593 0.136371 0.526021 0.951682 0.918375 0.417755 0.310868 0.880704 0.960549 0.479122 0.299111 0.900628 0.927955 0.336652 0.493585 0.983656 0.760614 0.037353 0.815098 0.951802 0.310358 0.598717 0.999095 0.516508 0.440872 0.994907 0.600830 0.386236 0.992898 0.581902 0.445477 0.999922 0.455305 0.606575 0.976084 0.198165 0.822855 0.838987 0.196780 0.986366 0.492513 0.659353 0.921881 0.089555 0.979076 0.466915 0.729768 0.844782 0.319277 0.995089 0.112876 0.951847 0.476309 0.785322 0.734698 0.566118 0.890891 0.347581 0.968406 0.161918 0.996221 0.024719 0.999716 0.058836 0.996779 0.088087 0.996598 0.063291 0.999530 0.015489 0.997174 0.147846 0.972497 0.328943 0.900975 0.544516 0.754182 0.764544 0.508251 0.938542 0.157709 0.998792 0.266850 0.875470 0.683073 0.529351 0.960074 0.004020 0.953866 0.580351 0.584374 0.960111 0.070683 0.905600 0.730212 0.350788 0.998823 0.451837 0.619991 0.975459 0.235436 0.757904 0.930853 0.124897 0.803511 0.918058
1.000000 1.000000 1.000000 1.000000 1.000000 1.000000 1.000000 1.000000 1.000000 1.000000 1.000000 1.000000 1.000000 1.000000 1.000000 1.000000 1.000000 1.000000 1.000000 1.000000 1.000000 1.000000 1.000000 1.000000 -0.341546 -0.418258 -0.418258 -0.418258 -0.418258 -0.418258 -0.418258 -0.418258 -0.383337 -0.337928 -0.345263 -0.341435 -0.441812 -0.460410 -0.481677 -0.471414 -0.456159 -0.468859 -0.372020 -0.357085 -0.396347 -0.329075 -0.345087 -0.231761 -0.215826 -0.194669 -0.169954 -0.118529 0.030886 0.071309 0.116292 0.269738 0.288258 0.408552 0.431275 0.479979 0.511568 0.586821 0.553598 0.634630 0.673760 0.693862 0.634336 0.712374 0.716069 0.699762 0.609428 0.612624 0.687782 0.658533 0.556440 0.447603 0.484294 0.406524 0.393580 0.407742 0.405672 0.383574 0.406025 0.282550 0.240042 0.189577 0.149290 0.090853 0.142619 0.179470 0.015550 0.052588 0.139678 0.011261 0.140712 0.125373 0.150081 0.121585 0.160123 0.097269 0.083121 -0.018843 -0.122378 -0.028883 0.084104 0.143970 0.203902 0.263517 0.295158 0.271229 0.159531 0.145385 0.208176 0.296284 0.342693 0.342192 0.261969 0.237381 0.236663 -0.004504 -0.035944 -0.020584 -0.106754 -0.110693 -0.079051 0.007565 0.018955 -0.029347 -0.042216 -0.235323 -0.066123 -0.106731 -0.300930 -0.103545 -0.139779 -0.161123 -0.273669 -0.294761 -0.282473 -0.269962 -0.234953 -0.350430 -0.167792 -0.208619 -0.347436 -0.211934 -0.199699 -0.139352 -0.177824 -0.181160 0.022420 0.058666 -0.152427 -0.002210 -0.107427 -0.033633 -0.018956 0.059994 0.043530 0.045001 0.095340 -0.003711 0.026092 0.030752 0.031043 0.059273 0.091320 0.115555 0.112444 0.096323 0.078020 0.132140 0.219803 0.237384 0.237109 0.151473 0.156226 0.238949 0.216911 0.229963 0.229571 0.244166 0.198108 0.250548 0.249362 0.258230 0.254604 0.252473 0.246125 0.204393 0.214796 0.217492 0.254632 0.255000 0.199726 0.216438 0.226838 0.241128 0.243922 0.249162 0.245304 0.248060 0.248472 0.246217 0.221288 0.222588 0.323800 0.317040 0.301141 0.302539 0.301883 0.303345 0.303172 0.297253 0.284296 0.281633 0.213145 0.226762 0.227344 0.290003 0.284680 0.280946 0.282653 0.281778 0.316702 0.300457 0.295758 0.297805 0.240088 0.224053 0.217713 0.218727 0.270219 0.259548 0.261932 0.255020 0.249085 0.240809 0.191531 0.186555 0.180993 0.143607 0.136603 0.135605 0.027535 0.015309 0.022494 0.020148 0.010157 0.009244 -0.013051 -0.017998 -0.020765 0.017759 0.023150 0.043666 0.037423 0.024034 0.026599 0.042196 0.038046 0.053404 0.077227 0.083299 0.053739 0.075543 0.081562 0.095882 0.116575 0.121076 0.057527 0.039040 0.009779 0.000462 0.003320 -0.006668 -0.024829 -0.024027 -0.032191 -0.009182 -0.015856 -0.010118 -0.022624 -0.043591 -0.029886 0.003452 -0.012279 -0.003095 -0.005687 -0.006512 -0.007714 -0.025775 -0.029167 -0.006510 -0.029881 0.002110 0.025393 0.026944 0.011312 0.015999 0.022933 0.025388 0.034064 0.019873 0.015506 0.008887 -0.008467 0.014740 -0.001325 0.006933 0.020093 0.008346 0.016194 0.020583 0.011777 0.011777 0.011777 0.009950 0.009950 0.009950 0.009950 0.027478 0.027478 0.027478 0.035810 0.035810 0.035810 0.022986 0.022986 0.022986 0.026978 0.026978 0.026978 0.026978 0.017054 0.017054 0.017054 0.031014 0.031014 0.031014 0.044945 0.044945 0.044945 0.033122 0.033122 0.033122 0.038023 0.038023 0.038023 0.052147 0.052147 0.052147 0.046318 0.046318 0.046318 0.046318 0.034351 0.034351 0.034351 0.039338 0.039338 0.039338 0.039338
0.000000 0.000000 0.000000 0.000000 0.000000 0.000000 0.000000 0.000000 0.000000 0.000000 0.000000 0.000000 0.000000 0.000000 0.000000 0.000000 0.000000 0.000000 0.000000 0.000000 0.000000 0.000000 0.000000 0.000000 0.371391 0.436436 0.436436 0.436436 0.436436 0.436436 0.436436 0.436436 0.458831 0.458831 0.458831 0.458831 0.458831 0.458831 0.436436 0.436436 0.436436 0.436436 0.436436 0.436436 0.458831 0.458831 0.458831 0.458831 0.458831 0.458831 0.458831 0.458831 0.458831 0.458831 0.458831 0.458831 0.458831 0.458831 0.458831 0.458831 0.458831 0.458831 0.458831 0.458831 0.458831 0.458831 0.458831 0.458831 0.458831 0.458831 0.458831 0.458831 0.458831 0.458831 0.458831 0.436436 0.436436 0.436436 0.436436 0.436436 0.436436 0.458831 0.458831 0.417029 0.417029 0.417029 0.458831 0.458831 0.458831 0.458831 0.400000 0.400000 0.400000 0.458831 0.458831 0.458831 0.458831 0.436436 0.436436 0.436436 0.436436 0.436436 0.436436 0.417029 0.417029 0.417029 0.417029 0.417029 0.417029 0.400000 0.400000 0.400000 0.400000 0.400000 0.400000 0.400000 0.400000 0.458831 0.384900 0.384900 0.384900 0.384900 0.371391 0.371391 0.458831 0.371391 0.371391 0.359211 0.359211 0.436436 0.359211 0.359211 0.436436 0.348155 0.348155 0.417029 0.348155 0.348155 0.417029 0.338062 0.338062 0.417029 0.328798 0.328798 0.400000 0.328798 0.328798 0.400000 0.320256 0.320256 0.384900 0.384900 0.312348 0.312348 0.384900 0.384900 0.304997 0.304997 0.371391 0.371391 0.304997 0.304997 0.371391 0.359211 0.298142 0.298142 0.359211 0.359211 0.359211 0.285714 0.285714 0.348155 0.348155 0.348155 0.348155 0.280056 0.280056 0.338062 0.338062 0.338062 0.338062 0.328798 0.269680 0.269680 0.328798 0.328798 0.328798 0.320256 0.320256 0.320256 0.320256 0.320256 0.256074 0.256074 0.312348 0.312348 0.312348 0.312348 0.304997 0.304997 0.304997 0.304997 0.304997 0.298142 0.298142 0.298142 0.298142 0.298142 0.291730 0.291730 0.291730 0.291730 0.291730 0.285714 0.285714 0.285714 0.285714 0.285714 0.280056 0.280056 0.280056 0.280056 0.280056 0.274721 0.274721 0.274721 0.274721 0.274721 0.269680 0.269680 0.269680 0.269680 0.264906 0.264906 0.264906 0.264906 0.264906 0.260378 0.260378 0.260378 0.260378 0.256074 0.256074 0.256074 0.256074 0.251976 0.251976 0.251976 0.251976 0.251976 0.248069 0.248069 0.248069 0.248069 0.244339 0.244339 0.244339 0.244339 0.240772 0.240772 0.240772 0.240772 0.237356 0.237356 0.237356 0.237356 0.234082 0.234082 0.234082 0.234082 0.230940 0.230940 0.230940 0.230940 0.227921 0.227921 0.227921 0.227921 0.225018 0.225018 0.225018 0.225018 0.222222 0.222222 0.222222 0.219529 0.219529 0.219529 0.219529 0.216930 0.216930 0.216930 0.216930 0.214423 0.214423 0.214423 0.212000 0.212000 0.212000 0.212000 0.209657 0.209657 0.209657 0.207390 0.207390 0.207390 0.207390 0.205196 0.205196 0.205196 0.203069 0.203069 0.203069 0.203069 0.201008 0.201008 0.201008 0.199007 0.199007 0.199007 0.199007 0.197066 0.197066 0.197066 0.195180 0.195180 0.195180 0.193347 0.193347 0.193347 0.191565 0.191565 0.191565 0.191565 0.189832 0.189832 0.189832 0.188144 0.188144 0.188144 0.186501 0.186501 0.186501 0.184900 0.184900 0.184900 0.183340 0.183340 0.183340 0.181818 0.181818 0.181818 0.180334 0.180334 0.180334 0.180334 0.178885 0.178885 0.178885 0.177471 0.177471 0.177471 0.177471
