# Output from CTFFind version 4.1.14, run on 2024-08-30 16:05:32
# Input file: CtfFind/job005/Movies/20170629_00022_frameImage_PS.mrc ; Number of micrographs: 1
# Pixel size: 1.400 Angstroms ; acceleration voltage: 200.0 keV ; spherical aberration: 1.40 mm ; amplitude contrast: 0.10
# Box size: 512 pixels ; min. res.: 30.0 Angstroms ; max. res.: 5.0 Angstroms ; min. def.: 5000.0 um; max. def. 50000.0 um; num. frames averaged: 1
# 6 lines per micrograph: #1 - spatial frequency (1/Angstroms); #2 - 1D rotational average of spectrum (assuming no astigmatism); #3 - 1D rotational average of spectrum; #4 - CTF fit; #5 - cross-correlation between spectrum and CTF fit; #6 - 2sigma of expected cross correlation of noise
0.000000 0.001396 0.002791 0.004187 0.005582 0.006978 0.008373 0.009769 0.011164 0.012560 0.013955 0.015351 0.016746 0.018142 0.019538 0.020933 0.022329 0.023724 0.025120 0.026515 0.027911 0.029306 0.030702 0.032097 0.033493 0.034888 0.036284 0.037680 0.039075 0.040471 0.041866 0.043262 0.044657 0.046053 0.047448 0.048844 0.050239 0.051635 0.053030 0.054426 0.055822 0.057217 0.058613 0.060008 0.061404 0.062799 0.064195 0.065590 0.066986 0.068381 0.069777 0.071172 0.072568 0.073964 0.075359 0.076755 0.078150 0.079546 0.080941 0.082337 0.083732 0.085128 0.086523 0.087919 0.089314 0.090710 0.092106 0.093501 0.094897 0.096292 0.097688 0.099083 0.100479 0.101874 0.103270 0.104665 0.106061 0.107456 0.108852 0.110247 0.111643 0.113039 0.114434 0.115830 0.117225 0.118621 0.120016 0.121412 0.122807 0.124203 0.125598 0.126994 0.128389 0.129785 0.131181 0.132576 0.133972 0.135367 0.136763 0.138158 0.139554 0.140949 0.142345 0.143740 0.145136 0.146531 0.147927 0.149323 0.150718 0.152114 0.153509 0.154905 0.156300 0.157696 0.159091 0.160487 0.161882 0.163278 0.164673 0.166069 0.167465 0.168860 0.170256 0.171651 0.173047 0.174442 0.175838 0.177233 0.178629 0.180024 0.181420 0.182815 0.184211 0.185607 0.187002 0.188398 0.189793 0.191189 0.192584 0.193980 0.195375 0.196771 0.198166 0.199562 0.200957 0.202353 0.203749 0.205144 0.206540 0.207935 0.209331 0.210726 0.212122 0.213517 0.214913 0.216308 0.217704 0.219099 0.220495 0.221891 0.223286 0.224682 0.226077 0.227473 0.228868 0.230264 0.231659 0.233055 0.234450 0.235846 0.237241 0.238637 0.240033 0.241428 0.242824 0.244219 0.245615 0.247010 0.248406 0.249801 0.251197 0.252592 0.253988 0.255383 0.256779 0.258175 0.259570 0.260966 0.262361 0.263757 0.265152 0.266548 0.267943 0.269339 0.270734 0.272130 0.273525 0.274921 0.276317 0.277712 0.279108 0.280503 0.281899 0.283294 0.284690 0.286085 0.287481 0.288876 0.290272 0.291667 0.293063 0.294458 0.295854 0.297250 0.298645 0.300041 0.301436 0.302832 0.304227 0.305623 0.307018 0.308414 0.309809 0.311205 0.312600 0.313996 0.315392 0.316787 0.318183 0.319578 0.320974 0.322369 0.323765 0.325160 0.326556 0.327951 0.329347 0.330742 0.332138 0.333534 0.334929 0.336325 0.337720 0.339116 0.340511 0.341907 0.343302 0.344698 0.346093 0.347489 0.348884 0.350280 0.351676 0.353071 0.354467 0.355862 0.357258 0.358653 0.360049 0.361444 0.362840 0.364235 0.365631 0.367026 0.368422 0.369818 0.371213 0.372609 0.374004 0.375400 0.376795 0.378191 0.379586 0.380982 0.382377 0.383773 0.385168 0.386564 0.387960 0.389355 0.390751 0.392146 0.393542 0.394937 0.396333 0.397728 0.399124 0.400519 0.401915 0.403310 0.404706 0.406102 0.407497 0.408893 0.410288 0.411684 0.413079 0.414475 0.415870 0.417266 0.418661 0.420057 0.421452 0.422848 0.424244 0.425639 0.427035 0.428430 0.429826 0.431221 0.432617 0.434012 0.435408 0.436803 0.438199 0.439594 0.440990 0.442386 0.443781 0.445177 0.446572 0.447968 0.449363 0.450759 0.452154 0.453550 0.454945 0.456341 0.457736 0.459132 0.460528 0.461923 0.463319 0.464714 0.466110 0.467505 0.468901 0.470296 0.471692 0.473087 0.474483 0.475878 0.477274 0.478669 0.480065 0.481461 0.482856 0.484252 0.485647 0.487043 0.488438 0.489834 0.491229 0.492625 0.494020 0.495416 0.496811 0.498207 0.499603 0.500998 0.502394 0.503789 0.505185
      -0.20615       -0.12689       -0.06064       -0.03698       -0.02700       -0.01840       -0.01523       -0.01151       -0.00900       -0.00738       -0.00551       -0.00475       -0.00330       -0.00254       -0.00190       -0.00114       -0.00074        0.00001        0.00028        0.00072        0.00107        0.00139        0.00174       -0.00239       -0.73790       -1.25234       -0.89948       -0.30951        0.52434        1.02186        1.02977        0.49538       -0.42264       -0.97101       -0.88395       -0.37498        0.35187        0.61872        0.23266       -0.36111       -0.81169       -0.70936        0.03178        0.35067        0.17476       -0.36557       -0.58379       -0.14800        0.32811        0.29575       -0.12898       -0.29624        0.05507        0.38258        0.16723       -0.28080       -0.22117        0.21801        0.27721       -0.13531       -0.23310        0.17439        0.26638       -0.02233       -0.14874        0.08299        0.07506       -0.30068       -0.10794        0.12129       -0.17973       -0.26125       -0.02236       -0.03584       -0.26086        0.09490        0.08078       -0.21295       -0.01534        0.05033       -0.18041        0.09097        0.09165       -0.11371        0.05785        0.04639       -0.08066       -0.00486       -0.01288        0.01523        0.12575        0.04912        0.00367        0.04892       -0.03727       -0.05371        0.02713        0.09837        0.15044        0.06012        0.06396        0.05070       -0.01676        0.01274       -0.10125       -0.04662       -0.01263        0.07991       -0.00934        0.02593        0.07657        0.01681       -0.01184       -0.02062        0.03302        0.04880        0.07168       -0.00024       -0.03687        0.02843        0.04298       -0.00916        0.02970       -0.02483       -0.05405       -0.00668       -0.02182        0.03223        0.00752       -0.01410        0.03036        0.02440       -0.02345        0.01210       -0.02928       -0.04342        0.00722        0.07518        0.00281       -0.02024        0.00887        0.04476        0.02294        0.04057        0.02380       -0.03219        0.00896       -0.01196       -0.02255       -0.04150       -0.01285       -0.01305       -0.01036        0.03016        0.01064        0.00684        0.02101        0.00983        0.00527        0.02159       -0.00304        0.03729       -0.00168        0.07984        0.02387       -0.02594       -0.01781        0.07953        0.01195       -0.03725        0.00961       -0.04133       -0.07893       -0.01069        0.00243       -0.02142        0.03252        0.02096        0.01699       -0.00073       -0.02028       -0.01582       -0.02283        0.02757       -0.00710       -0.01573        0.00020       -0.03520        0.01651        0.01817        0.04416       -0.00972        0.01652        0.00674        0.00165        0.02510        0.03302        0.00294        0.00554        0.05989        0.01765       -0.01223        0.02722        0.00220        0.01584        0.01720        0.03969        0.05070       -0.00874       -0.03673        0.05027        0.00366        0.02140       -0.00512       -0.02190       -0.03250        0.00548       -0.04244        0.01529        0.01839        0.01219        0.01203        0.02248       -0.02117       -0.03801       -0.01069        0.00468       -0.02682        0.02631        0.03818       -0.00500        0.01480        0.01408       -0.00593        0.02450        0.01784        0.01954        0.03183        0.02042        0.04009        0.06835        0.05614        0.01517       -0.01543        0.00798        0.02363        0.00669        0.00758        0.02073       -0.01364        0.00354       -0.04867        0.00555       -0.04085       -0.00704        0.00402       -0.01032        0.03440        0.00052       -0.03872       -0.01666       -0.02596        0.04092        0.07601        0.03722        0.01484        0.06890        0.00257        0.02151       -0.00904        0.01396       -0.04717       -0.06438       -0.04620        0.03805        0.01109       -0.01863       -0.01060       -0.01616        0.00584       -0.00309        0.01483        0.01291       -0.01799        0.03965        0.01951        0.08744       -0.00793        0.01859        0.01878        0.03965       -0.00413       -0.03673       -0.06534       -0.04015        0.03678       -0.02202        0.03562        0.12924        0.06879        0.07484        0.02808        0.00067       -0.06217       -0.00098        0.01102       -0.04332        0.04027        0.00577        0.00365       -0.04023       -0.04406        0.03348        0.07751       -0.00091        0.02398       -0.07968        0.02451        0.01082       -0.03566        0.01560       -0.00941        0.04626       -0.04666        0.11237        0.06406        0.00979       -0.09278        0.09657       -0.12579       -0.08349       -0.00898        0.14830        0.05696        0.04809        0.04982        0.00804        0.00514       -0.13554       -0.04973       -0.00002       -0.01864       -0.12128       -0.03740        0.00122        0.07092        0.11853        0.05622        0.06851        0.08888        0.05427        0.00093        0.12282        0.01680       -0.09274        0.02404       -0.04486       -0.05128       -0.16435        0.12193        0.12301       -0.19901        0.08700
-0.206146 -0.023899 -0.023426 -0.022637 -0.021533 -0.020112 -0.018377 -0.016326 -0.013959 -0.011277 -0.008279 -0.006829 -0.005624 -0.004314 -0.002899 -0.001469 -0.000947 -0.000393 0.000196 0.000219 -0.000331 -0.000910 -0.130589 -0.381682 -0.643929 -0.651936 -0.635812 -0.293163 0.325044 0.708293 0.700727 0.436936 -0.258781 -0.653949 -0.723597 -0.346384 0.224359 0.350228 0.229658 -0.287232 -0.609371 -0.610428 -0.056557 0.190982 0.109902 -0.246377 -0.519152 -0.176249 0.188562 0.275167 -0.054145 -0.298301 0.039180 0.288223 0.156363 -0.170930 -0.197116 0.137197 0.253197 -0.058810 -0.216952 0.104372 0.256681 0.002675 -0.130930 0.077240 0.059477 -0.246587 -0.162445 0.126770 -0.086633 -0.327348 -0.012425 0.034466 -0.339920 -0.016807 0.129051 -0.256203 -0.078224 0.144521 -0.270136 0.026603 0.197954 -0.219116 0.042390 0.080219 -0.193544 0.056043 -0.042250 -0.006990 0.230121 0.007533 -0.027216 0.054148 -0.036599 -0.053027 0.036017 0.006087 0.178823 0.124407 0.046762 0.068089 -0.045228 0.031257 -0.079551 -0.045642 -0.013725 0.066071 -0.015065 0.062266 0.009794 0.034099 0.004426 -0.032051 0.000051 0.040233 0.000587 0.044153 -0.012593 -0.006951 0.008900 0.044235 -0.002198 -0.022702 0.007732 0.005665 -0.022029 0.011478 -0.011910 0.035496 0.007306 0.015155 -0.070925 0.006950 0.023019 -0.002839 -0.041805 0.041524 0.036974 -0.024615 -0.061980 0.032946 0.041145 0.017059 0.043955 -0.062486 -0.006062 0.007471 -0.032898 -0.037662 -0.013628 0.031818 -0.028221 0.022910 0.023518 -0.004138 -0.029575 -0.027983 0.011779 -0.004326 -0.003970 0.006203 -0.028074 0.059352 -0.035302 0.055720 -0.032270 0.044160 0.024820 -0.007149 -0.079582 -0.024105 -0.002798 -0.075802 0.007010 0.006210 0.027937 -0.009837 0.076580 -0.026284 -0.032267 -0.034702 0.081853 -0.058424 0.008330 0.065951 -0.022990 -0.019230 0.009764 -0.058686 0.054287 -0.011939 0.026150 -0.018539 0.006123 0.050101 -0.013639 0.012622 -0.025012 0.097898 0.039749 0.000985 -0.019916 0.004060 -0.032526 0.027098 0.028841 0.031347 -0.007284 -0.000258 -0.037428 -0.029524 0.019252 -0.047804 -0.086983 0.003472 0.030222 -0.045672 -0.050969 -0.031011 -0.005620 -0.006132 -0.007365 -0.045119 -0.043538 0.083798 -0.052235 -0.080283 0.018386 -0.061297 0.006489 0.041413 -0.103203 0.044606 0.019655 0.005126 0.063153 0.008631 0.055384 0.051940 0.037338 0.051141 0.085511 0.052058 -0.029093 0.040265 0.016156 0.029019 -0.053234 0.024166 -0.026541 0.067471 -0.035316 -0.054924 0.004479 -0.058668 -0.010079 -0.039194 -0.003718 0.078544 -0.000630 0.061467 0.013519 0.017313 0.095179 0.065546 -0.051474 0.118641 0.081658 -0.003002 -0.012472 -0.071863 -0.023902 -0.048122 -0.058766 0.007724 -0.105273 0.042342 -0.058610 -0.138963 0.002482 0.062249 -0.126575 0.017676 -0.081908 -0.016625 0.180466 -0.003901 0.133076 0.117894 0.004161 0.041103 -0.090142 -0.067089 0.021079 -0.159001 -0.022583 0.215848 0.008031 0.009678 0.072538 -0.102345 0.040688 0.034239 -0.006806 -0.012891 0.034865 -0.049569 -0.114548 -0.037318 -0.115514 0.046638 -0.068175 -0.053924 -0.027908 0.095821 0.006169 0.033355 -0.074577 -0.159762 0.043636 -0.104379 -0.071250 0.095883 0.165287 0.034694 -0.156438 0.029958 -0.039268 -0.084398 0.013163 -0.007744 -0.103521 -0.025333 0.095665 -0.027299 -0.020388 -0.228457 -0.143239 0.055807 0.132881 0.112010 -0.313588 0.042243 -0.142365 0.018732 -0.132478 0.040893 0.421622 -0.023683 -0.054176 0.457657 0.195040 0.034763 -0.029848 -1.014389 -0.132973 -0.130448 0.075158 0.024744 -0.037312 -0.187801 0.000000
0.100000 0.106292 0.125141 0.156453 0.200020 0.255446 0.322047 0.398723 0.483814 0.574948 0.668898 0.761457 0.847385 0.920428 0.973474 0.998876 0.988970 0.936813 0.837141 0.687483 0.489358 0.249384 0.019907 0.299821 0.566082 0.790502 0.943868 0.999999 0.940627 0.760465 0.471462 0.105035 0.288947 0.647361 0.903446 0.999977 0.903858 0.618775 0.191836 0.289541 0.712569 0.964933 0.966634 0.699335 0.222681 0.331564 0.791405 0.997556 0.862580 0.414464 0.196957 0.742285 0.996517 0.836493 0.309634 0.365195 0.879638 0.976297 0.586053 0.112635 0.760788 0.998320 0.671317 0.053421 0.754876 0.995076 0.600665 0.194199 0.866324 0.942109 0.344174 0.513041 0.991637 0.706820 0.142310 0.883439 0.893697 0.139584 0.743303 0.966956 0.304924 0.648672 0.986699 0.358559 0.633919 0.983540 0.305728 0.703449 0.951437 0.141392 0.834192 0.848887 0.139247 0.965093 0.610890 0.508925 0.986126 0.186792 0.862782 0.757647 0.383825 0.996018 0.201518 0.885793 0.681495 0.536485 0.947962 0.094113 0.992439 0.322037 0.867690 0.644343 0.646647 0.853472 0.394602 0.962280 0.157216 0.998614 0.040122 0.992750 0.187296 0.970402 0.283064 0.949974 0.329624 0.942171 0.328939 0.950419 0.281018 0.971075 0.183909 0.993230 0.035508 0.998332 0.162695 0.960653 0.400293 0.850122 0.651598 0.639350 0.870860 0.316183 0.993138 0.099444 0.946445 0.539812 0.679278 0.886682 0.200884 0.996090 0.381560 0.760447 0.859559 0.195234 0.987904 0.497003 0.624058 0.959682 0.116074 0.862881 0.816674 0.176224 0.962936 0.671040 0.352710 0.992010 0.585643 0.420250 0.995963 0.585657 0.386729 0.986723 0.670966 0.248069 0.940712 0.816320 0.005328 0.802929 0.959162 0.362370 0.505757 0.988531 0.748362 0.019071 0.765371 0.990043 0.565658 0.213316 0.851627 0.971267 0.523185 0.215555 0.826597 0.989369 0.639005 0.026358 0.669761 0.990017 0.856666 0.349805 0.297436 0.813056 0.999903 0.803708 0.316636 0.273640 0.760776 0.991446 0.907926 0.553753 0.047397 0.461844 0.839117 0.997444 0.913030 0.621687 0.201646 0.250169 0.641803 0.903958 0.999766 0.926157 0.708695 0.392247 0.030397 0.324449 0.628342 0.850307 0.973905 0.996428 0.926345 0.780068 0.578401 0.343406 0.095977 0.145988 0.368475 0.561705 0.719979 0.841087 0.925789 0.976849 0.998473 0.995649 0.973619 0.937514 0.892095 0.841575 0.789574 0.739093 0.692530 0.651792 0.618285 0.593015 0.576685 0.569766 0.572354 0.584410 0.605583 0.635381 0.672862 0.716825 0.765598 0.817046 0.868482 0.916629 0.957593 0.986945 0.999805 0.991064 0.955671 0.889102 0.787875 0.650178 0.476651 0.270930 0.040392 0.203565 0.445544 0.666900 0.846711 0.963779 0.999472 0.940597 0.782740 0.533225 0.212709 0.144560 0.493235 0.782016 0.961204 0.992164 0.857010 0.566343 0.162728 0.282602 0.679996 0.939182 0.991132 0.809039 0.422516 0.081156 0.572819 0.912710 0.991532 0.769619 0.300053 0.276334 0.768063 0.996132 0.862741 0.399879 0.227068 0.771098 0.999618 0.798407 0.237589 0.440404 0.918008 0.952255 0.506796 0.207086 0.819021 0.988603 0.602471 0.137101 0.803200 0.985929 0.552831 0.239951 0.882547 0.935785 0.342607 0.498740 0.986241 0.746846 0.061083 0.828460 0.945486 0.297491 0.601806 0.999436 0.537706 0.400975 0.986068 0.671384 0.273056 0.963546 0.722527 0.235255 0.961688 0.704847 0.290576 0.982333 0.613534 0.433660 0.999997 0.428508 0.642902 0.961302 0.128969 0.864217 0.792232
1.000000 1.000000 1.000000 1.000000 1.000000 1.000000 1.000000 1.000000 1.000000 1.000000 1.000000 1.000000 1.000000 1.000000 1.000000 1.000000 1.000000 1.000000 1.000000 1.000000 1.000000 1.000000 1.000000 1.000000 -0.455455 -0.455455 -0.455455 -0.455455 -0.668943 -0.668943 -0.668943 -0.668943 -0.668943 -0.668943 -0.668943 -0.658863 -0.704492 -0.678049 -0.696437 -0.698950 -0.703553 -0.668517 -0.662915 -0.584134 -0.577638 -0.427476 -0.401688 -0.361236 -0.333430 -0.303515 -0.196795 -0.143475 -0.111920 -0.117675 -0.026513 0.007756 0.080895 0.182828 0.252327 0.277768 0.326332 0.318134 0.354761 0.364146 0.403260 0.465831 0.458206 0.595165 0.583152 0.631983 0.654383 0.715188 0.741021 0.808299 0.833961 0.809047 0.847600 0.844060 0.865332 0.723832 0.720833 0.733020 0.703732 0.708824 0.699657 0.677600 0.697382 0.619420 0.602009 0.565171 0.493429 0.556339 0.548577 0.527266 0.506926 0.449988 0.256816 0.204624 0.125232 0.232661 0.129769 0.091217 0.110150 0.127989 -0.079486 -0.055786 0.173303 0.071634 0.109885 0.073401 0.019870 0.092088 0.082473 -0.007063 -0.016598 -0.014654 0.039168 0.207835 0.211697 0.136310 0.251449 0.337588 0.313333 0.300551 0.316721 0.338624 0.371510 0.347276 0.268404 0.191700 0.214742 0.209931 0.181243 0.146457 0.209179 0.230563 0.212114 0.200829 0.210644 0.271726 0.301077 0.270192 0.218615 0.067420 0.062603 0.003905 -0.076865 -0.114583 -0.021655 -0.070126 -0.116130 -0.163269 -0.101376 -0.097676 -0.052218 -0.083967 -0.010864 -0.023134 -0.158511 -0.098717 -0.078997 -0.091961 -0.054462 -0.095347 -0.158938 -0.085820 -0.110112 -0.203314 -0.038132 -0.068137 -0.239313 0.002664 -0.027915 -0.073849 -0.003290 -0.025594 0.081643 -0.021960 -0.049010 0.134720 0.147917 -0.051288 0.026849 0.180189 0.080789 0.134463 0.105430 0.083369 0.193602 0.168272 0.057455 0.066503 0.142242 0.175062 0.229161 0.262094 0.259284 0.193077 0.181846 0.253601 0.272839 0.206073 0.165538 0.267258 0.283906 0.299339 0.305204 0.285473 0.297565 0.323066 0.299852 0.279337 0.272999 0.294709 0.279548 0.297213 0.296854 0.294060 0.287106 0.225295 0.256913 0.247155 0.354089 0.330716 0.327579 0.334773 0.335283 0.329388 0.252285 0.248548 0.331210 0.296360 0.305965 0.305698 0.307924 0.311728 0.309026 0.306988 0.316313 0.306611 0.306461 0.296682 0.306886 0.325639 0.313898 0.300784 0.304642 0.268893 0.276839 0.276649 0.270695 0.270807 0.276328 0.272085 0.301286 0.285379 0.287210 0.257103 0.264210 0.268081 0.259429 0.254070 0.244433 0.238486 0.241187 0.243058 0.243386 0.267056 0.256780 0.257154 0.256311 0.213499 0.213900 0.213402 0.215364 0.178112 0.183786 0.221639 0.223853 0.229706 0.232803 0.256952 0.256728 0.202659 0.198065 0.191594 0.193841 0.197631 0.194198 0.194047 0.101563 0.096998 0.091987 0.096689 0.118157 0.111217 0.115804 0.150108 0.148621 0.081065 0.079732 0.079842 0.073980 0.071039 0.078747 0.043916 0.049876 0.024631 0.062008 0.040897 0.041534 0.046808 0.019036 0.014921 0.019100 0.046095 0.047025 0.039479 0.044019 0.023469 0.011634 0.020572 0.038372 0.038372 0.038372 0.038372 0.040815 0.040815 0.040815 0.040815 0.033135 0.033135 0.033135 0.033135 0.021041 0.021041 0.021041 0.040266 0.040266 0.040266 0.040266 0.030322 0.030322 0.030322 0.030322 0.024144 0.024144 0.024144 0.024144 0.021543 0.021543 0.021543 0.021543 0.021762 0.021762 0.021762 0.023749 0.023749 0.023749 0.023749 0.026352 0.026352 0.026352
0.000000 0.000000 0.000000 0.000000 0.000000 0.000000 0.000000 0.000000 0.000000 0.000000 0.000000 0.000000 0.000000 0.000000 0.000000 0.000000 0.000000 0.000000 0.000000 0.000000 0.000000 0.000000 0.000000 0.000000 0.359211 0.359211 0.359211 0.359211 0.417029 0.417029 0.417029 0.417029 0.417029 0.417029 0.417029 0.417029 0.458831 0.458831 0.458831 0.458831 0.458831 0.458831 0.436436 0.436436 0.436436 0.436436 0.436436 0.436436 0.458831 0.458831 0.458831 0.458831 0.458831 0.458831 0.458831 0.458831 0.458831 0.458831 0.458831 0.458831 0.458831 0.458831 0.458831 0.458831 0.458831 0.436436 0.436436 0.436436 0.436436 0.436436 0.436436 0.436436 0.436436 0.458831 0.458831 0.458831 0.458831 0.458831 0.458831 0.458831 0.458831 0.458831 0.436436 0.436436 0.436436 0.436436 0.436436 0.436436 0.436436 0.436436 0.436436 0.417029 0.417029 0.417029 0.458831 0.458831 0.400000 0.400000 0.400000 0.458831 0.458831 0.400000 0.400000 0.400000 0.458831 0.458831 0.384900 0.384900 0.384900 0.436436 0.436436 0.436436 0.436436 0.417029 0.417029 0.417029 0.417029 0.359211 0.359211 0.359211 0.400000 0.400000 0.400000 0.400000 0.400000 0.400000 0.400000 0.400000 0.384900 0.384900 0.384900 0.384900 0.458831 0.371391 0.371391 0.371391 0.371391 0.371391 0.371391 0.359211 0.359211 0.359211 0.359211 0.436436 0.359211 0.359211 0.348155 0.348155 0.417029 0.348155 0.348155 0.338062 0.338062 0.417029 0.338062 0.338062 0.328798 0.328798 0.400000 0.328798 0.328798 0.400000 0.320256 0.320256 0.384900 0.320256 0.320256 0.384900 0.312348 0.312348 0.384900 0.304997 0.304997 0.371391 0.304997 0.304997 0.371391 0.298142 0.298142 0.359211 0.359211 0.291730 0.291730 0.359211 0.291730 0.291730 0.348155 0.348155 0.285714 0.285714 0.348155 0.348155 0.280056 0.280056 0.338062 0.338062 0.338062 0.274721 0.274721 0.328798 0.328798 0.269680 0.269680 0.328798 0.328798 0.320256 0.320256 0.260378 0.260378 0.320256 0.320256 0.312348 0.312348 0.256074 0.256074 0.312348 0.312348 0.304997 0.304997 0.304997 0.248069 0.248069 0.304997 0.298142 0.298142 0.298142 0.298142 0.298142 0.240772 0.240772 0.291730 0.291730 0.291730 0.291730 0.285714 0.285714 0.285714 0.285714 0.285714 0.280056 0.280056 0.280056 0.227921 0.227921 0.280056 0.274721 0.274721 0.274721 0.274721 0.274721 0.269680 0.269680 0.269680 0.269680 0.269680 0.264906 0.264906 0.264906 0.264906 0.264906 0.260378 0.260378 0.260378 0.260378 0.260378 0.256074 0.256074 0.256074 0.256074 0.251976 0.251976 0.251976 0.251976 0.251976 0.248069 0.248069 0.248069 0.248069 0.248069 0.244339 0.244339 0.244339 0.244339 0.240772 0.240772 0.240772 0.240772 0.240772 0.237356 0.237356 0.237356 0.237356 0.234082 0.234082 0.234082 0.234082 0.234082 0.230940 0.230940 0.230940 0.230940 0.227921 0.227921 0.227921 0.227921 0.225018 0.225018 0.225018 0.225018 0.222222 0.222222 0.222222 0.222222 0.222222 0.219529 0.219529 0.219529 0.219529 0.216930 0.216930 0.216930 0.216930 0.214423 0.214423 0.214423 0.214423 0.212000 0.212000 0.212000 0.212000 0.209657 0.209657 0.209657 0.209657 0.207390 0.207390 0.207390 0.205196 0.205196 0.205196 0.205196 0.203069 0.203069 0.203069 0.203069 0.201008 0.201008 0.201008 0.201008 0.199007 0.199007 0.199007 0.199007 0.197066 0.197066 0.197066 0.195180 0.195180 0.195180 0.195180 0.193347 0.193347 0.193347
