# Output from CTFFind version 4.1.14, run on 2024-08-30 16:05:32
# Input file: CtfFind/job005/Movies/20170629_00031_frameImage_PS.mrc ; Number of micrographs: 1
# Pixel size: 1.400 Angstroms ; acceleration voltage: 200.0 keV ; spherical aberration: 1.40 mm ; amplitude contrast: 0.10
# Box size: 512 pixels ; min. res.: 30.0 Angstroms ; max. res.: 5.0 Angstroms ; min. def.: 5000.0 um; max. def. 50000.0 um; num. frames averaged: 1
# 6 lines per micrograph: #1 - spatial frequency (1/Angstroms); #2 - 1D rotational average of spectrum (assuming no astigmatism); #3 - 1D rotational average of spectrum; #4 - CTF fit; #5 - cross-correlation between spectrum and CTF fit; #6 - 2sigma of expected cross correlation of noise
0.000000 0.001396 0.002791 0.004187 0.005582 0.006978 0.008373 0.009769 0.011164 0.012560 0.013955 0.015351 0.016746 0.018142 0.019538 0.020933 0.022329 0.023724 0.025120 0.026515 0.027911 0.029306 0.030702 0.032097 0.033493 0.034888 0.036284 0.037680 0.039075 0.040471 0.041866 0.043262 0.044657 0.046053 0.047448 0.048844 0.050239 0.051635 0.053030 0.054426 0.055822 0.057217 0.058613 0.060008 0.061404 0.062799 0.064195 0.065590 0.066986 0.068381 0.069777 0.071172 0.072568 0.073964 0.075359 0.076755 0.078150 0.079546 0.080941 0.082337 0.083732 0.085128 0.086523 0.087919 0.089314 0.090710 0.092106 0.093501 0.094897 0.096292 0.097688 0.099083 0.100479 0.101874 0.103270 0.104665 0.106061 0.107456 0.108852 0.110247 0.111643 0.113039 0.114434 0.115830 0.117225 0.118621 0.120016 0.121412 0.122807 0.124203 0.125598 0.126994 0.128389 0.129785 0.131181 0.132576 0.133972 0.135367 0.136763 0.138158 0.139554 0.140949 0.142345 0.143740 0.145136 0.146531 0.147927 0.149323 0.150718 0.152114 0.153509 0.154905 0.156300 0.157696 0.159091 0.160487 0.161882 0.163278 0.164673 0.166069 0.167465 0.168860 0.170256 0.171651 0.173047 0.174442 0.175838 0.177233 0.178629 0.180024 0.181420 0.182815 0.184211 0.185607 0.187002 0.188398 0.189793 0.191189 0.192584 0.193980 0.195375 0.196771 0.198166 0.199562 0.200957 0.202353 0.203749 0.205144 0.206540 0.207935 0.209331 0.210726 0.212122 0.213517 0.214913 0.216308 0.217704 0.219099 0.220495 0.221891 0.223286 0.224682 0.226077 0.227473 0.228868 0.230264 0.231659 0.233055 0.234450 0.235846 0.237241 0.238637 0.240033 0.241428 0.242824 0.244219 0.245615 0.247010 0.248406 0.249801 0.251197 0.252592 0.253988 0.255383 0.256779 0.258175 0.259570 0.260966 0.262361 0.263757 0.265152 0.266548 0.267943 0.269339 0.270734 0.272130 0.273525 0.274921 0.276317 0.277712 0.279108 0.280503 0.281899 0.283294 0.284690 0.286085 0.287481 0.288876 0.290272 0.291667 0.293063 0.294458 0.295854 0.297250 0.298645 0.300041 0.301436 0.302832 0.304227 0.305623 0.307018 0.308414 0.309809 0.311205 0.312600 0.313996 0.315392 0.316787 0.318183 0.319578 0.320974 0.322369 0.323765 0.325160 0.326556 0.327951 0.329347 0.330742 0.332138 0.333534 0.334929 0.336325 0.337720 0.339116 0.340511 0.341907 0.343302 0.344698 0.346093 0.347489 0.348884 0.350280 0.351676 0.353071 0.354467 0.355862 0.357258 0.358653 0.360049 0.361444 0.362840 0.364235 0.365631 0.367026 0.368422 0.369818 0.371213 0.372609 0.374004 0.375400 0.376795 0.378191 0.379586 0.380982 0.382377 0.383773 0.385168 0.386564 0.387960 0.389355 0.390751 0.392146 0.393542 0.394937 0.396333 0.397728 0.399124 0.400519 0.401915 0.403310 0.404706 0.406102 0.407497 0.408893 0.410288 0.411684 0.413079 0.414475 0.415870 0.417266 0.418661 0.420057 0.421452 0.422848 0.424244 0.425639 0.427035 0.428430 0.429826 0.431221 0.432617 0.434012 0.435408 0.436803 0.438199 0.439594 0.440990 0.442386 0.443781 0.445177 0.446572 0.447968 0.449363 0.450759 0.452154 0.453550 0.454945 0.456341 0.457736 0.459132 0.460528 0.461923 0.463319 0.464714 0.466110 0.467505 0.468901 0.470296 0.471692 0.473087 0.474483 0.475878 0.477274 0.478669 0.480065 0.481461 0.482856 0.484252 0.485647 0.487043 0.488438 0.489834 0.491229 0.492625 0.494020 0.495416 0.496811 0.498207 0.499603 0.500998 0.502394 0.503789 0.505185
      -0.26534       -0.17515       -0.09975       -0.07283       -0.06147       -0.05169       -0.04809       -0.04384       -0.04099       -0.03915       -0.03702       -0.03615       -0.03451       -0.03364       -0.03291       -0.03205       -0.03159       -0.03074       -0.03043       -0.02993       -0.02953       -0.02917       -0.02877       -0.03490       -0.69040       -1.27549       -1.12608       -0.70164        0.11344        0.85758        1.09990        0.53323       -0.12876       -0.79902       -1.04296       -0.63297        0.03655        0.52127        0.44569       -0.18521       -0.73344       -0.84374       -0.37442        0.05127        0.31819       -0.11315       -0.58583       -0.55112        0.02120        0.43005        0.18482       -0.27169       -0.25295        0.19102        0.35732       -0.02141       -0.32976       -0.15459        0.34508        0.27174       -0.21805       -0.15953        0.17157        0.10840       -0.30968       -0.26324        0.23966       -0.02603       -0.40214       -0.11868        0.10233       -0.35993       -0.40835        0.07358       -0.10825       -0.40825        0.08646        0.13533       -0.28656        0.09448        0.17955       -0.27011        0.07173        0.09702       -0.18435        0.10676        0.08319       -0.16054        0.11159       -0.01199       -0.08828        0.11379       -0.11865       -0.02935        0.02107       -0.07416        0.15616        0.06089       -0.02580        0.07180        0.01573        0.05895        0.06419       -0.03330       -0.07212       -0.06108        0.00377       -0.07035       -0.04689        0.01615       -0.03336       -0.01726       -0.01199        0.01660       -0.04477       -0.04634       -0.02599       -0.03578        0.00669       -0.08372        0.04720       -0.05766       -0.05397       -0.04681       -0.03310        0.00536        0.01315        0.01076        0.04098       -0.06208       -0.05332        0.00609       -0.03737       -0.00248       -0.03560       -0.06366       -0.02460       -0.01405       -0.02729       -0.04505       -0.03215        0.01661       -0.00490       -0.00650       -0.04014       -0.06602       -0.00469        0.02358       -0.03808       -0.04158       -0.01463       -0.01382       -0.00862       -0.01592       -0.04751       -0.04644       -0.03681       -0.01898       -0.04151       -0.00474       -0.00763        0.01324       -0.03331       -0.04173       -0.04941       -0.03403       -0.03881       -0.09030       -0.04520       -0.05465       -0.07616       -0.03581       -0.04340       -0.05435        0.02827        0.02579       -0.00866        0.02470        0.03062       -0.00210        0.04081       -0.05136       -0.06129       -0.03446       -0.01477       -0.06749       -0.04309       -0.09461       -0.06027        0.01172        0.01104        0.00421        0.00491        0.01005        0.03903       -0.00248       -0.01430       -0.00549        0.00138       -0.03715        0.04613        0.00313        0.01081       -0.03107       -0.05171       -0.06194       -0.04190       -0.09461       -0.05629       -0.02889       -0.03331       -0.00220       -0.08218       -0.05022       -0.00094       -0.01449       -0.01170       -0.01312       -0.00732        0.00770        0.01441       -0.05854       -0.03872       -0.00090       -0.01321       -0.04087       -0.08925        0.00660       -0.02001       -0.03836       -0.04782       -0.03088       -0.04568       -0.05598       -0.00709       -0.00534       -0.03659       -0.00618        0.03081       -0.00911       -0.04331       -0.03909       -0.00723       -0.00953       -0.00997       -0.04646       -0.01385       -0.03075       -0.03963       -0.02662       -0.02617       -0.01647       -0.03711       -0.01737        0.00824        0.01272       -0.05414       -0.07627       -0.06194       -0.06687       -0.02360       -0.02363        0.00371        0.00233       -0.04814       -0.03550        0.01645        0.06643       -0.03766        0.03144        0.01998       -0.01955       -0.02717       -0.02073        0.01821       -0.02146       -0.03055       -0.06921       -0.06926       -0.01627       -0.06671       -0.04582       -0.08337       -0.07569       -0.06231       -0.06764       -0.01903        0.02756        0.06581        0.00996       -0.00243       -0.00441        0.03441        0.01380       -0.03416       -0.05284       -0.04804       -0.02874        0.01216       -0.01375        0.00957       -0.07571       -0.04984       -0.01411       -0.00666        0.03849       -0.07321       -0.03838        0.03786       -0.01502       -0.01528       -0.02112       -0.00669       -0.02936        0.00471        0.01306       -0.01391       -0.02882       -0.05417       -0.07018       -0.12433       -0.11859       -0.06289       -0.01020       -0.04274       -0.10528        0.04897       -0.01649       -0.00438       -0.05145       -0.01392        0.07980        0.02199        0.10025        0.02679        0.03803        0.01632       -0.11133       -0.03365        0.15699        0.08102       -0.04355       -0.16708       -0.19105       -0.09540       -0.06411        0.02094       -0.10175       -0.02816       -0.06240        0.05493       -0.03878       -0.09179       -0.08786        0.21473       -0.02576       -0.14522       -0.12273       -0.04218       -0.23380        0.04599       -0.79080       -1.39902
-0.265338 -0.058021 -0.057479 -0.056575 -0.055311 -0.053685 -0.051697 -0.049349 -0.046639 -0.043568 -0.040135 -0.038565 -0.037166 -0.035646 -0.034004 -0.032406 -0.031816 -0.031188 -0.030522 -0.030247 -0.030289 -0.030334 -0.163292 -0.395893 -0.638826 -0.758214 -0.879853 -0.552044 0.063224 0.490160 0.686886 0.521362 -0.092965 -0.534850 -0.845659 -0.544450 -0.081190 0.295790 0.298421 -0.113878 -0.546863 -0.692329 -0.461062 -0.008570 0.134517 -0.036154 -0.527694 -0.482130 -0.074198 0.282052 0.242810 -0.208685 -0.284129 0.131106 0.290807 0.043217 -0.247261 -0.158732 0.222910 0.260999 -0.102252 -0.182307 0.121424 0.132013 -0.281304 -0.284800 0.217009 0.092796 -0.433098 -0.211083 0.106557 -0.262576 -0.500410 0.123090 -0.012061 -0.434806 -0.014339 0.335615 -0.260526 -0.003455 0.393288 -0.263835 -0.031538 0.305609 -0.236572 0.017787 0.258995 -0.375155 0.142591 0.067611 -0.288201 0.329706 -0.135378 -0.140048 0.147813 -0.311328 0.233847 0.106869 -0.115091 0.154062 -0.075983 0.087011 0.070767 -0.014608 -0.053880 -0.101412 0.052927 -0.046061 -0.057748 -0.050436 0.029633 -0.014965 -0.047148 0.005092 0.019204 -0.073689 -0.046957 -0.057973 -0.008145 -0.007279 -0.041700 -0.024102 -0.006398 -0.052037 -0.080685 0.008305 0.035901 -0.028171 0.060782 -0.036213 -0.008325 -0.049869 -0.005962 -0.040209 0.006938 -0.044569 -0.044495 -0.059578 -0.052550 -0.004145 -0.070820 -0.043380 0.042309 0.038602 -0.035960 -0.060489 -0.073204 0.027153 -0.009556 -0.039039 -0.063167 0.025358 -0.041261 0.030138 -0.019797 -0.015317 -0.059350 -0.067890 0.009827 -0.080082 -0.036781 0.020996 -0.011791 -0.036900 -0.025552 -0.046996 -0.032078 -0.101531 -0.087505 -0.051926 -0.073826 -0.032713 -0.039019 -0.018364 -0.059047 0.104430 -0.030433 0.054064 0.022321 0.005786 0.004576 0.051597 -0.072992 -0.071708 -0.048677 -0.024990 -0.100115 -0.029370 -0.096500 0.049530 -0.013162 -0.045854 0.055589 0.074012 0.011091 0.054048 -0.008555 -0.010079 -0.010518 -0.034038 0.032767 -0.016843 0.011853 -0.016045 -0.093407 -0.103647 -0.033804 -0.036966 -0.077525 -0.084873 -0.010119 0.003715 -0.021827 -0.097148 -0.065728 -0.038330 0.001102 -0.078047 -0.060521 0.031786 -0.064781 0.002629 -0.086541 -0.026760 -0.001446 -0.091632 -0.059707 0.011437 -0.013094 0.019526 -0.067174 -0.088108 -0.028012 -0.031668 -0.013351 -0.012863 0.025899 -0.024751 -0.018944 0.023751 0.016574 -0.021719 -0.021361 -0.058568 0.028790 0.058803 -0.073060 -0.094535 -0.030896 0.078697 -0.050198 -0.004193 -0.015952 -0.078910 -0.020829 0.046876 0.025354 -0.044649 -0.086323 -0.076378 0.000399 -0.049155 -0.070823 -0.019936 -0.013982 0.033656 -0.016909 0.046579 0.027641 0.098868 0.086847 0.056960 -0.133171 -0.055365 0.059229 0.029888 0.103431 -0.118525 -0.128712 0.039863 -0.028302 -0.057041 -0.077232 -0.039156 -0.117241 -0.171247 0.001223 -0.129004 0.090746 0.108981 -0.027241 0.003853 0.109475 0.015146 -0.093942 0.047841 -0.174962 -0.103729 0.093171 0.030662 0.060791 -0.158866 0.108324 -0.096064 -0.031266 0.022373 -0.026197 0.025673 0.043645 -0.016927 -0.015910 -0.016014 0.052466 -0.068229 0.042757 -0.133399 0.014779 -0.133112 0.108344 0.009932 0.050069 -0.239986 -0.205218 0.106105 0.039037 -0.207321 -0.083353 0.003955 -0.025145 -0.080768 0.071902 0.021826 -0.131715 0.047210 0.176401 -0.004603 0.170029 -0.191529 -0.235208 0.081709 0.231299 0.161164 0.169744 -0.218005 -0.485571 0.101845 0.111592 0.170386 0.090132 0.335274 0.035572 -0.201533 -0.012263 0.032631 0.003686 -0.107614 0.516111 -0.096022 -0.105338 -0.091621 0.176246 0.000000 -0.297570
0.100000 0.106169 0.124652 0.155356 0.198085 0.252463 0.317839 0.393171 0.476887 0.566742 0.659674 0.751695 0.837817 0.912077 0.967657 0.997176 0.993154 0.948690 0.858334 0.719138 0.531788 0.301686 0.039803 0.236955 0.506112 0.740965 0.913065 0.995823 0.969015 0.823642 0.566293 0.221946 0.165999 0.539414 0.833326 0.987551 0.960452 0.742040 0.362746 0.105866 0.561108 0.890190 0.999144 0.842885 0.447040 0.087975 0.606780 0.941916 0.969858 0.662103 0.110007 0.492995 0.914248 0.972901 0.624602 0.000578 0.635099 0.983348 0.863049 0.311393 0.408042 0.920604 0.935724 0.422590 0.342940 0.912246 0.925304 0.350844 0.459314 0.970005 0.816883 0.083206 0.718541 0.991788 0.508039 0.379322 0.969541 0.765387 0.087158 0.871615 0.891016 0.103561 0.786043 0.937989 0.183019 0.758472 0.940235 0.153120 0.800520 0.899782 0.012823 0.893867 0.786239 0.236310 0.984430 0.547764 0.564950 0.975483 0.143823 0.878403 0.744644 0.390641 0.996466 0.219091 0.870965 0.713265 0.486751 0.968336 0.008483 0.975210 0.428218 0.796266 0.747748 0.517027 0.931308 0.212810 0.997669 0.065638 0.982479 0.292718 0.923198 0.461526 0.851070 0.575872 0.788517 0.643432 0.749571 0.671055 0.741339 0.662160 0.765154 0.615632 0.816930 0.526218 0.886332 0.386283 0.955438 0.189444 0.997592 0.063810 0.978190 0.358540 0.859620 0.657822 0.612445 0.898991 0.233281 0.999985 0.234314 0.882054 0.686543 0.510615 0.969974 0.056547 0.932008 0.642082 0.510041 0.982963 0.176599 0.851509 0.806579 0.231912 0.984488 0.563619 0.512127 0.995835 0.358843 0.669442 0.968623 0.240652 0.732209 0.954318 0.224702 0.718840 0.969359 0.312372 0.625143 0.996338 0.493413 0.427076 0.983088 0.732164 0.099931 0.846727 0.943804 0.341027 0.502162 0.983400 0.785115 0.064315 0.690603 0.999980 0.689913 0.029832 0.723757 0.999982 0.723610 0.064978 0.618746 0.983257 0.865142 0.341572 0.330148 0.846729 0.994948 0.731420 0.181341 0.429568 0.871670 0.995890 0.776410 0.304574 0.255418 0.727267 0.977591 0.949055 0.666254 0.218078 0.274238 0.691701 0.945217 0.991537 0.835753 0.522711 0.121877 0.289821 0.643218 0.887422 0.995237 0.963177 0.807723 0.559330 0.255546 0.065141 0.368338 0.627041 0.823022 0.947129 0.998158 0.981303 0.906186 0.785046 0.630998 0.456817 0.273886 0.091764 0.082047 0.242293 0.385642 0.510361 0.616210 0.703844 0.774709 0.830665 0.873816 0.906228 0.929911 0.946653 0.957981 0.965056 0.968751 0.969516 0.967477 0.962358 0.953523 0.939978 0.920407 0.893187 0.856467 0.808204 0.746340 0.668905 0.574279 0.461293 0.329665 0.180226 0.015252 0.161204 0.343098 0.522471 0.689268 0.831804 0.937485 0.993818 0.989636 0.916913 0.772442 0.559658 0.289964 0.016701 0.332292 0.622356 0.849941 0.980128 0.986176 0.855750 0.596139 0.237103 0.170134 0.558322 0.854549 0.994726 0.938841 0.684537 0.274147 0.207901 0.649970 0.937921 0.986293 0.766995 0.326302 0.218516 0.706004 0.977484 0.931359 0.566282 0.004893 0.583280 0.949416 0.949239 0.565131 0.060330 0.668500 0.987850 0.859143 0.323610 0.375790 0.896047 0.962098 0.520620 0.208520 0.829595 0.982643 0.560068 0.204384 0.850438 0.964386 0.453732 0.363381 0.940948 0.868492 0.176638 0.650082 0.999469 0.590663 0.281157 0.936452 0.836761 0.042894 0.793150 0.950940 0.272945 0.654750 0.989679 0.403886 0.569465 0.997749 0.445074 0.557697 0.996475 0.401530 0.621618 0.981180
1.000000 1.000000 1.000000 1.000000 1.000000 1.000000 1.000000 1.000000 1.000000 1.000000 1.000000 1.000000 1.000000 1.000000 1.000000 1.000000 1.000000 1.000000 1.000000 1.000000 1.000000 1.000000 1.000000 1.000000 -0.385960 -0.385960 -0.385960 -0.385960 -0.407022 -0.407022 -0.407022 -0.407022 -0.407022 -0.407022 -0.407022 -0.377578 -0.343443 -0.263236 -0.335711 -0.369915 -0.351446 -0.343428 -0.391990 -0.453167 -0.439576 -0.382033 -0.305400 -0.389474 -0.391977 -0.414933 -0.448969 -0.350117 -0.361649 -0.316391 -0.267913 -0.277240 -0.198895 -0.220238 -0.158647 -0.125976 -0.108099 -0.058182 0.116100 0.065657 0.137058 0.158556 0.181043 0.193658 0.352727 0.313448 0.383687 0.451988 0.472334 0.551487 0.531462 0.614841 0.624401 0.678358 0.698556 0.777491 0.783254 0.781640 0.841682 0.790212 0.789906 0.798253 0.756708 0.780158 0.798150 0.790809 0.766302 0.690911 0.716972 0.686047 0.665121 0.657117 0.601505 0.480973 0.433738 0.413816 0.339742 0.242116 0.359171 0.350395 0.307825 0.202973 0.284265 0.238564 0.187825 0.206463 0.091605 0.102057 0.209135 0.151922 0.124675 0.099176 0.149338 0.220142 0.193287 0.205045 0.140303 0.181435 0.279868 0.385125 0.351213 0.401197 0.328963 0.133082 0.042841 0.112944 0.114387 0.096185 0.123687 0.142164 0.130346 0.044689 0.044530 -0.013497 -0.056571 0.024023 -0.159714 -0.146942 -0.194976 -0.254234 -0.293616 -0.304394 -0.369934 -0.392071 -0.545761 -0.428063 -0.453694 -0.516858 -0.553825 -0.570841 -0.556259 -0.561049 -0.544184 -0.511343 -0.723813 -0.531292 -0.545386 -0.688220 -0.654374 -0.661061 -0.601889 -0.609220 -0.693349 -0.605014 -0.527049 -0.577888 -0.567758 -0.574049 -0.504954 -0.619506 -0.619309 -0.473176 -0.526961 -0.531614 -0.430101 -0.510666 -0.538462 -0.511409 -0.435400 -0.481693 -0.484397 -0.430802 -0.403816 -0.442736 -0.425020 -0.479073 -0.403242 -0.392633 -0.428706 -0.438386 -0.316936 -0.319755 -0.394672 -0.360743 -0.360439 -0.296189 -0.305341 -0.302848 -0.305663 -0.227666 -0.225719 -0.331427 -0.363131 -0.344116 -0.164734 -0.164256 -0.182256 -0.177576 -0.172600 -0.129738 -0.164412 -0.143015 0.015147 0.007998 0.001930 -0.016427 -0.163242 -0.086528 0.008868 0.010729 0.126669 0.140786 0.150929 0.164300 -0.008699 -0.008214 0.193199 0.181551 0.180505 0.182726 0.177792 0.165710 0.150336 0.138999 -0.022076 0.069686 0.102929 0.097900 0.090148 0.082643 0.076198 0.115606 0.119604 0.122750 0.129466 0.133209 0.132759 0.132916 0.135883 0.133805 0.131548 0.149390 0.198762 0.189571 0.192979 0.195703 0.195957 0.193685 0.195303 0.163589 0.156548 0.151097 0.150577 0.153493 0.159343 0.137642 0.162491 0.160665 0.155936 0.159883 0.161887 0.160250 0.194387 0.186927 0.187444 0.188071 0.168348 0.159516 0.156591 0.157684 0.158067 0.188326 0.184749 0.189380 0.192054 0.226322 0.227399 0.233239 0.253719 0.253300 0.261637 0.182285 0.181844 0.189857 0.131887 0.134570 0.130651 0.141138 0.174805 0.176595 0.176897 0.174801 0.181197 0.190883 0.209134 0.218723 0.230390 0.223467 0.227363 0.215359 0.188349 0.184659 0.169391 0.171996 0.155771 0.148549 0.143885 0.136440 0.136440 0.136440 0.136440 0.149825 0.149825 0.149825 0.149825 0.156239 0.156239 0.156239 0.156239 0.155969 0.155969 0.155969 0.155969 0.150406 0.150406 0.150406 0.150406 0.141509 0.141509 0.141509 0.141509 0.131046 0.131046 0.131046 0.131046 0.120219 0.120219 0.120219 0.109716 0.109716 0.109716 0.109716 0.099932 0.099932 0.099932 0.099932 0.091207 0.091207 0.091207
0.000000 0.000000 0.000000 0.000000 0.000000 0.000000 0.000000 0.000000 0.000000 0.000000 0.000000 0.000000 0.000000 0.000000 0.000000 0.000000 0.000000 0.000000 0.000000 0.000000 0.000000 0.000000 0.000000 0.000000 0.359211 0.359211 0.359211 0.359211 0.417029 0.417029 0.417029 0.417029 0.417029 0.417029 0.417029 0.417029 0.458831 0.458831 0.458831 0.458831 0.458831 0.458831 0.436436 0.436436 0.436436 0.436436 0.436436 0.436436 0.458831 0.458831 0.458831 0.458831 0.458831 0.436436 0.436436 0.436436 0.436436 0.436436 0.458831 0.458831 0.458831 0.458831 0.458831 0.458831 0.458831 0.458831 0.436436 0.436436 0.436436 0.436436 0.458831 0.458831 0.458831 0.417029 0.417029 0.417029 0.417029 0.458831 0.458831 0.458831 0.458831 0.458831 0.458831 0.436436 0.436436 0.436436 0.436436 0.436436 0.436436 0.436436 0.436436 0.436436 0.417029 0.417029 0.417029 0.458831 0.458831 0.400000 0.400000 0.400000 0.458831 0.458831 0.400000 0.400000 0.400000 0.458831 0.458831 0.384900 0.384900 0.384900 0.436436 0.436436 0.436436 0.436436 0.417029 0.417029 0.359211 0.359211 0.359211 0.417029 0.417029 0.400000 0.400000 0.400000 0.400000 0.400000 0.400000 0.400000 0.400000 0.384900 0.384900 0.384900 0.384900 0.384900 0.384900 0.371391 0.371391 0.371391 0.371391 0.458831 0.359211 0.359211 0.359211 0.359211 0.359211 0.359211 0.359211 0.359211 0.436436 0.348155 0.348155 0.348155 0.348155 0.417029 0.338062 0.338062 0.338062 0.338062 0.400000 0.328798 0.328798 0.400000 0.328798 0.328798 0.320256 0.320256 0.384900 0.320256 0.320256 0.384900 0.312348 0.312348 0.384900 0.304997 0.304997 0.371391 0.304997 0.304997 0.371391 0.371391 0.298142 0.298142 0.359211 0.291730 0.291730 0.359211 0.359211 0.285714 0.285714 0.348155 0.285714 0.285714 0.348155 0.348155 0.280056 0.280056 0.338062 0.338062 0.338062 0.274721 0.274721 0.328798 0.328798 0.269680 0.269680 0.328798 0.328798 0.320256 0.264906 0.264906 0.320256 0.320256 0.320256 0.312348 0.256074 0.256074 0.312348 0.312348 0.312348 0.304997 0.251976 0.251976 0.304997 0.304997 0.304997 0.298142 0.298142 0.298142 0.244339 0.244339 0.298142 0.291730 0.291730 0.291730 0.291730 0.291730 0.285714 0.285714 0.234082 0.234082 0.285714 0.285714 0.280056 0.280056 0.280056 0.280056 0.280056 0.274721 0.274721 0.274721 0.274721 0.274721 0.269680 0.269680 0.269680 0.269680 0.269680 0.264906 0.264906 0.264906 0.264906 0.264906 0.260378 0.260378 0.260378 0.260378 0.260378 0.256074 0.256074 0.256074 0.256074 0.256074 0.251976 0.251976 0.251976 0.251976 0.251976 0.248069 0.248069 0.248069 0.248069 0.248069 0.244339 0.244339 0.244339 0.244339 0.240772 0.240772 0.240772 0.240772 0.240772 0.237356 0.237356 0.237356 0.237356 0.234082 0.234082 0.234082 0.234082 0.234082 0.230940 0.230940 0.230940 0.230940 0.227921 0.227921 0.227921 0.227921 0.225018 0.225018 0.225018 0.225018 0.225018 0.222222 0.222222 0.222222 0.222222 0.219529 0.219529 0.219529 0.219529 0.216930 0.216930 0.216930 0.216930 0.214423 0.214423 0.214423 0.214423 0.212000 0.212000 0.212000 0.212000 0.209657 0.209657 0.209657 0.209657 0.207390 0.207390 0.207390 0.207390 0.205196 0.205196 0.205196 0.205196 0.203069 0.203069 0.203069 0.203069 0.201008 0.201008 0.201008 0.199007 0.199007 0.199007 0.199007 0.197066 0.197066 0.197066 0.197066 0.195180 0.195180 0.195180
