# Output from CTFFind version 4.1.14, run on 2024-08-30 16:05:31
# Input file: CtfFind/job005/Movies/20170629_00046_frameImage_PS.mrc ; Number of micrographs: 1
# Pixel size: 1.400 Angstroms ; acceleration voltage: 200.0 keV ; spherical aberration: 1.40 mm ; amplitude contrast: 0.10
# Box size: 512 pixels ; min. res.: 30.0 Angstroms ; max. res.: 5.0 Angstroms ; min. def.: 5000.0 um; max. def. 50000.0 um; num. frames averaged: 1
# 6 lines per micrograph: #1 - spatial frequency (1/Angstroms); #2 - 1D rotational average of spectrum (assuming no astigmatism); #3 - 1D rotational average of spectrum; #4 - CTF fit; #5 - cross-correlation between spectrum and CTF fit; #6 - 2sigma of expected cross correlation of noise
0.000000 0.001396 0.002791 0.004187 0.005582 0.006978 0.008373 0.009769 0.011164 0.012560 0.013955 0.015351 0.016746 0.018142 0.019538 0.020933 0.022329 0.023724 0.025120 0.026515 0.027911 0.029306 0.030702 0.032097 0.033493 0.034888 0.036284 0.037680 0.039075 0.040471 0.041866 0.043262 0.044657 0.046053 0.047448 0.048844 0.050239 0.051635 0.053030 0.054426 0.055822 0.057217 0.058613 0.060008 0.061404 0.062799 0.064195 0.065590 0.066986 0.068381 0.069777 0.071172 0.072568 0.073964 0.075359 0.076755 0.078150 0.079546 0.080941 0.082337 0.083732 0.085128 0.086523 0.087919 0.089314 0.090710 0.092106 0.093501 0.094897 0.096292 0.097688 0.099083 0.100479 0.101874 0.103270 0.104665 0.106061 0.107456 0.108852 0.110247 0.111643 0.113039 0.114434 0.115830 0.117225 0.118621 0.120016 0.121412 0.122807 0.124203 0.125598 0.126994 0.128389 0.129785 0.131181 0.132576 0.133972 0.135367 0.136763 0.138158 0.139554 0.140949 0.142345 0.143740 0.145136 0.146531 0.147927 0.149323 0.150718 0.152114 0.153509 0.154905 0.156300 0.157696 0.159091 0.160487 0.161882 0.163278 0.164673 0.166069 0.167465 0.168860 0.170256 0.171651 0.173047 0.174442 0.175838 0.177233 0.178629 0.180024 0.181420 0.182815 0.184211 0.185607 0.187002 0.188398 0.189793 0.191189 0.192584 0.193980 0.195375 0.196771 0.198166 0.199562 0.200957 0.202353 0.203749 0.205144 0.206540 0.207935 0.209331 0.210726 0.212122 0.213517 0.214913 0.216308 0.217704 0.219099 0.220495 0.221891 0.223286 0.224682 0.226077 0.227473 0.228868 0.230264 0.231659 0.233055 0.234450 0.235846 0.237241 0.238637 0.240033 0.241428 0.242824 0.244219 0.245615 0.247010 0.248406 0.249801 0.251197 0.252592 0.253988 0.255383 0.256779 0.258175 0.259570 0.260966 0.262361 0.263757 0.265152 0.266548 0.267943 0.269339 0.270734 0.272130 0.273525 0.274921 0.276317 0.277712 0.279108 0.280503 0.281899 0.283294 0.284690 0.286085 0.287481 0.288876 0.290272 0.291667 0.293063 0.294458 0.295854 0.297250 0.298645 0.300041 0.301436 0.302832 0.304227 0.305623 0.307018 0.308414 0.309809 0.311205 0.312600 0.313996 0.315392 0.316787 0.318183 0.319578 0.320974 0.322369 0.323765 0.325160 0.326556 0.327951 0.329347 0.330742 0.332138 0.333534 0.334929 0.336325 0.337720 0.339116 0.340511 0.341907 0.343302 0.344698 0.346093 0.347489 0.348884 0.350280 0.351676 0.353071 0.354467 0.355862 0.357258 0.358653 0.360049 0.361444 0.362840 0.364235 0.365631 0.367026 0.368422 0.369818 0.371213 0.372609 0.374004 0.375400 0.376795 0.378191 0.379586 0.380982 0.382377 0.383773 0.385168 0.386564 0.387960 0.389355 0.390751 0.392146 0.393542 0.394937 0.396333 0.397728 0.399124 0.400519 0.401915 0.403310 0.404706 0.406102 0.407497 0.408893 0.410288 0.411684 0.413079 0.414475 0.415870 0.417266 0.418661 0.420057 0.421452 0.422848 0.424244 0.425639 0.427035 0.428430 0.429826 0.431221 0.432617 0.434012 0.435408 0.436803 0.438199 0.439594 0.440990 0.442386 0.443781 0.445177 0.446572 0.447968 0.449363 0.450759 0.452154 0.453550 0.454945 0.456341 0.457736 0.459132 0.460528 0.461923 0.463319 0.464714 0.466110 0.467505 0.468901 0.470296 0.471692 0.473087 0.474483 0.475878 0.477274 0.478669 0.480065 0.481461 0.482856 0.484252 0.485647 0.487043 0.488438 0.489834 0.491229 0.492625 0.494020 0.495416 0.496811 0.498207 0.499603 0.500998 0.502394 0.503789 0.505185
      -0.07263       -0.03302        0.00010        0.01193        0.01692        0.02121        0.02279        0.02466        0.02591        0.02672        0.02766        0.02804        0.02876        0.02914        0.02946        0.02984        0.03004        0.03041        0.03055        0.03077        0.03095        0.03110        0.03128        0.03772        0.81259        0.79198        0.28985       -0.24727       -0.70892       -0.76233       -0.64915       -0.20761        0.21938        0.46332        0.71323        0.65462        0.19366       -0.47011       -0.83252       -0.87693       -0.49197       -0.09865        0.30279        0.32759        0.10724       -0.35092       -0.56531       -0.50076       -0.09525        0.38868        0.50395        0.20940       -0.15620       -0.33065       -0.05724        0.43480        0.62791        0.44811        0.00189       -0.08381        0.14772        0.38473        0.33995        0.00627       -0.23260       -0.15328        0.29938        0.17052       -0.16570       -0.29174       -0.15859        0.09194        0.02254       -0.37599       -0.29385       -0.00140        0.10099       -0.15986       -0.20869        0.10075        0.28613       -0.11120       -0.20947        0.14823        0.19494       -0.05026       -0.15323        0.20183        0.08154       -0.17691       -0.10715        0.21511        0.03632       -0.15158        0.17546        0.10767       -0.10203        0.06498        0.27937       -0.07477       -0.00740        0.32963        0.13389       -0.09442        0.23567        0.14149       -0.11142        0.15298       -0.02778       -0.14909        0.18469        0.06886       -0.03868        0.15373       -0.06055        0.01242        0.16044       -0.03471        0.09300        0.10859       -0.05622        0.13930       -0.06048        0.02364        0.06803       -0.01128        0.01514        0.08129       -0.08524        0.01876        0.00425        0.02844        0.01800        0.03063        0.11835        0.08532        0.11927        0.04694        0.08807        0.05873        0.02936        0.02475        0.08654        0.07620       -0.04988        0.02304        0.09547        0.02241        0.02487        0.03300       -0.03049       -0.00567       -0.04894        0.01415       -0.02378        0.00475        0.07235        0.11903        0.05752        0.06579        0.02350        0.05648        0.05070        0.09480        0.00525       -0.00024       -0.00543        0.00640       -0.02099        0.00814       -0.02188        0.02636        0.03787        0.06129       -0.00710       -0.02884        0.04724        0.05188        0.01687        0.02739        0.08816        0.07935        0.07310        0.06030        0.00667        0.04294        0.00188        0.02162        0.03024        0.02696        0.04080       -0.00035       -0.02293        0.03943        0.06889        0.06335        0.01414       -0.01061        0.04217        0.04179        0.01856        0.05415        0.04819        0.02800        0.06715        0.03386        0.02958        0.05904        0.07781        0.10395        0.04486        0.01390        0.00238        0.02945        0.03521        0.00507        0.04056        0.02295        0.05474        0.03279       -0.01039        0.01400        0.03587       -0.01809       -0.01999        0.05247        0.06644        0.04868        0.06657        0.03897        0.04894        0.04261        0.02101        0.05296        0.04085        0.02924        0.01579        0.02501        0.01668        0.00874        0.02389        0.04867        0.04017        0.00631        0.01543        0.00175        0.02607        0.01425        0.06502        0.07165        0.10297        0.02745        0.04151        0.03984        0.06783        0.03276        0.06041        0.02771        0.01491       -0.03201       -0.01581        0.07201        0.06437        0.00477        0.00767        0.01696        0.00308        0.00365        0.04133        0.08841        0.06887        0.00768       -0.01322       -0.00729        0.06923        0.03890        0.02995        0.00710        0.04169        0.03412       -0.04025        0.02615        0.04031        0.05270        0.08086        0.10154        0.05611        0.01912        0.02323        0.03524        0.05065        0.06950        0.07368        0.05589        0.01804       -0.06270       -0.03331        0.05433        0.09719        0.01137        0.04893        0.05175       -0.02742        0.06262        0.00749        0.03395        0.03170        0.01466        0.03921        0.06662        0.10276        0.06053       -0.08896       -0.05292        0.08230        0.03743        0.07704        0.10946        0.05844        0.09027        0.10969        0.14679        0.08770        0.08391       -0.04244       -0.08466       -0.10691        0.02598       -0.02970        0.02969        0.07699       -0.10337        0.00583       -0.01671       -0.02922        0.11622        0.09597        0.01721        0.02321       -0.02324        0.15397        0.14100        0.00524        0.10455        0.01365        0.02720        0.14686       -0.10469        0.07605        0.12398        0.14314        0.20539        0.01651        0.14536        0.00618       -0.33802       -0.06865       -0.15029       -0.35243        0.02088       -0.18620       -0.11099       -0.81280
-0.072627 0.018379 0.018622 0.019028 0.019596 0.020326 0.021218 0.022273 0.023489 0.024868 0.026245 0.026862 0.027538 0.028272 0.029065 0.029696 0.029949 0.030219 0.030505 0.030709 0.030894 0.031088 0.164913 0.342156 0.476606 0.367297 0.253530 -0.099287 -0.518899 -0.608643 -0.518430 -0.243855 0.138674 0.407133 0.645240 0.487833 0.209381 -0.342462 -0.667717 -0.816346 -0.511273 -0.146167 0.189771 0.293004 0.058702 -0.247933 -0.502030 -0.506719 -0.127852 0.274105 0.443391 0.267925 -0.102109 -0.340833 -0.076128 0.350851 0.592506 0.461665 0.087903 -0.064287 0.096979 0.352521 0.355686 0.095642 -0.240502 -0.223310 0.220629 0.245767 -0.110147 -0.295532 -0.181778 0.067055 0.077784 -0.301257 -0.345376 -0.024648 0.111309 -0.070393 -0.257420 0.006200 0.304913 0.005007 -0.315582 0.048464 0.355933 -0.005254 -0.212253 0.106791 0.214105 -0.164367 -0.260108 0.205371 0.191151 -0.224734 0.065823 0.267907 -0.163632 -0.023030 0.325218 0.056382 -0.177945 0.317966 0.285759 -0.293296 0.232913 0.266969 -0.207923 0.126603 0.198062 -0.360452 0.206047 0.259287 -0.270274 0.256777 0.045412 -0.231453 0.475144 -0.123089 -0.065626 0.379082 -0.281507 0.229286 -0.002791 -0.275794 0.339763 -0.184825 0.074239 0.097666 -0.137361 0.209745 -0.236783 0.085220 0.039966 -0.062326 0.198355 0.014198 0.125966 0.057800 0.059468 0.051097 0.048323 0.067143 0.076849 0.063941 -0.028371 0.018031 -0.042191 0.088406 -0.042146 0.097906 0.004420 -0.033567 -0.002255 -0.076065 -0.012068 0.065169 0.035153 0.082124 0.083468 0.058649 0.031372 -0.012093 0.106894 0.110593 0.042800 0.010601 -0.018347 -0.020783 0.030514 -0.015069 0.048972 -0.024857 0.036485 0.031614 0.020944 0.001369 0.014294 0.000276 0.041128 -0.029527 0.135629 0.087280 0.042020 -0.014081 0.039984 0.057749 0.067276 0.039350 0.010476 0.071465 0.069198 0.055581 -0.014691 -0.007528 0.086512 0.045481 0.006487 -0.102660 -0.025466 0.035646 0.003001 0.065907 -0.011292 0.021652 0.102948 -0.000021 0.096465 0.046132 0.073828 0.155514 -0.010714 -0.025764 0.004955 0.040305 -0.000783 -0.003482 0.072450 0.076256 0.074279 -0.006298 -0.028627 -0.010930 0.009033 -0.004699 0.024968 0.072464 -0.025070 0.081259 0.080168 0.132360 0.076109 0.091203 -0.024308 0.038615 0.039740 0.052969 0.123886 -0.048745 0.053026 -0.022839 0.084359 0.063100 -0.005680 0.078183 -0.026574 0.005556 0.060658 0.004820 -0.000881 -0.043763 0.083402 0.097502 0.067203 -0.035186 0.127634 0.114730 0.049953 0.079151 -0.096126 -0.007494 0.000876 0.088879 0.025525 0.040538 0.007971 0.038817 -0.068101 0.083258 0.004971 0.113689 0.004894 0.067468 0.081022 0.071356 0.050224 -0.043262 0.055693 0.004551 -0.026258 0.009711 -0.092432 0.091142 0.178415 -0.025391 -0.004126 0.109889 0.125699 -0.004299 0.098445 0.007803 -0.125138 0.071670 0.214690 0.031954 0.136145 0.054579 -0.001797 0.085511 -0.070124 -0.018243 0.088482 0.047942 0.032451 0.070897 -0.035859 0.018203 0.071876 -0.046149 0.065621 0.200321 -0.079057 -0.023977 0.123705 -0.020275 0.119920 -0.008998 -0.012162 0.102357 0.111517 0.116492 0.086575 0.155471 0.223248 0.059921 0.171789 0.014382 0.036992 -0.122590 -0.196664 0.247179 0.008378 -0.062556 -0.113479 0.000856 -0.088086 -0.020893 0.004633 0.087482 0.219629 0.026691 0.048380 0.132945 -0.014479 0.172355 0.024699 -0.059341 0.104764 0.065763 0.459723 -0.166455 0.418973 0.289438 -0.288185 0.157206 -0.037714 0.039597 0.104710 -0.601753 -0.229188 -0.258733 -0.034664 0.161792 0.000000
0.100000 0.104767 0.119055 0.142811 0.175929 0.218213 0.269334 0.328773 0.395757 0.469182 0.547539 0.628839 0.710552 0.789558 0.862140 0.924014 0.970429 0.996333 0.996635 0.966557 0.902084 0.800494 0.660953 0.485101 0.277597 0.046512 0.196522 0.436515 0.655775 0.835075 0.955367 0.999970 0.957070 0.822263 0.600771 0.308854 0.026052 0.366890 0.670465 0.892821 0.996048 0.955654 0.767196 0.450643 0.050935 0.366390 0.724813 0.950844 0.990231 0.822968 0.473077 0.009399 0.464904 0.833821 0.997352 0.900989 0.557154 0.050313 0.479270 0.872116 0.998322 0.804074 0.338991 0.249298 0.757370 0.995521 0.861956 0.392399 0.239793 0.781495 0.999957 0.787166 0.220934 0.453029 0.921758 0.951190 0.510390 0.194043 0.805012 0.993418 0.641615 0.072210 0.751693 0.997712 0.648658 0.100799 0.793919 0.985218 0.534103 0.277517 0.906672 0.909756 0.266411 0.575171 0.997819 0.670939 0.174444 0.889201 0.898482 0.176241 0.697135 0.987452 0.430281 0.507283 0.998621 0.587243 0.368528 0.984043 0.663728 0.302676 0.975764 0.673789 0.316609 0.984238 0.619678 0.408938 0.998725 0.490724 0.568611 0.987046 0.269803 0.766029 0.897366 0.050751 0.940689 0.669636 0.442915 0.995957 0.266359 0.813965 0.819636 0.274846 0.999039 0.349306 0.789691 0.816228 0.324865 0.998483 0.209818 0.892208 0.656754 0.577487 0.926319 0.165414 0.999002 0.243770 0.905357 0.582381 0.699933 0.819240 0.439784 0.952571 0.171465 0.999004 0.073762 0.983287 0.279373 0.930878 0.440030 0.863770 0.557495 0.798822 0.636823 0.747763 0.683602 0.717836 0.702111 0.712691 0.694284 0.732867 0.659343 0.776001 0.593943 0.836316 0.492948 0.904088 0.350911 0.964711 0.164516 0.998489 0.064342 0.981470 0.324336 0.888434 0.591166 0.698726 0.825390 0.405152 0.974715 0.024526 0.982875 0.393262 0.806815 0.763634 0.440378 0.979838 0.062655 0.944237 0.578849 0.615251 0.934846 0.054270 0.965523 0.556272 0.601509 0.955056 0.052396 0.915244 0.707442 0.393884 0.999874 0.372796 0.704723 0.933625 0.058077 0.881636 0.803816 0.184957 0.962722 0.676239 0.343468 0.990791 0.589965 0.422089 0.997031 0.563581 0.427460 0.995251 0.601574 0.360328 0.980686 0.696912 0.215039 0.930521 0.827927 0.013770 0.807046 0.951546 0.317145 0.568015 0.998821 0.651744 0.189770 0.883386 0.922720 0.295750 0.536202 0.989171 0.763772 0.028840 0.719355 0.998478 0.645037 0.104666 0.784719 0.992782 0.621250 0.101178 0.760768 0.998834 0.700724 0.038863 0.636679 0.987221 0.851469 0.310041 0.370785 0.875495 0.984932 0.664818 0.065956 0.553715 0.942896 0.956385 0.602644 0.027645 0.550658 0.926698 0.978285 0.700689 0.197789 0.361484 0.801912 0.996127 0.897880 0.547408 0.051936 0.450276 0.829291 0.995911 0.919603 0.629660 0.202032 0.262914 0.664859 0.924720 0.998527 0.881912 0.606384 0.229261 0.179739 0.551876 0.830662 0.979485 0.984468 0.853668 0.612965 0.300050 0.042219 0.371961 0.653313 0.859708 0.975582 0.996373 0.927250 0.781116 0.576033 0.332894 0.072775 0.184602 0.422532 0.627893 0.791619 0.908675 0.977628 0.999999 0.979711 0.922310 0.834332 0.722763 0.594364 0.455560 0.312069 0.168861 0.029786 0.102103 0.224607 0.336358 0.436533 0.524870 0.601752 0.667669 0.723348 0.769792 0.807936 0.838767 0.863293 0.882311 0.896610 0.906814 0.913435 0.916803 0.917092 0.914292 0.908282 0.898787 0.885329 0.867343 0.844113 0.814814 0.778543 0.734389 0.681363
1.000000 1.000000 1.000000 1.000000 1.000000 1.000000 1.000000 1.000000 1.000000 1.000000 1.000000 1.000000 1.000000 1.000000 1.000000 1.000000 1.000000 1.000000 1.000000 1.000000 1.000000 1.000000 1.000000 1.000000 -0.619030 -0.619030 -0.619030 -0.619030 -0.619030 -0.619030 -0.619030 -0.619030 -0.617610 -0.617610 -0.617610 -0.617610 -0.617610 -0.654223 -0.611221 -0.593279 -0.575032 -0.554726 -0.582025 -0.581578 -0.566470 -0.583290 -0.606121 -0.592570 -0.596617 -0.605086 -0.610059 -0.581627 -0.558844 -0.554965 -0.497400 -0.535745 -0.567814 -0.481596 -0.481088 -0.441772 -0.402367 -0.470832 -0.398765 -0.437731 -0.395619 -0.407552 -0.358021 -0.344055 -0.325084 -0.313343 -0.294072 -0.352378 -0.269420 -0.281240 -0.253075 -0.214388 -0.194150 -0.202248 -0.176738 -0.144189 -0.166480 -0.087117 -0.170967 -0.151513 -0.076807 -0.023923 -0.018196 0.005745 0.067422 0.081833 0.166064 0.147353 0.196464 0.188364 0.229073 0.229291 0.278197 0.347425 0.330042 0.401480 0.393105 0.454969 0.498275 0.498196 0.572371 0.639369 0.669585 0.681646 0.673159 0.778181 0.768682 0.767152 0.778447 0.767665 0.717475 0.776174 0.793339 0.771419 0.802621 0.722225 0.723439 0.719716 0.682007 0.592737 0.496418 0.626433 0.523336 0.512877 0.508939 0.535086 0.458517 0.358441 0.307043 0.353610 0.271336 0.164000 0.107895 0.056284 0.000908 0.033932 -0.047209 -0.147256 -0.066745 -0.027983 -0.058030 -0.164440 -0.227350 -0.176518 -0.216122 -0.195395 -0.142798 -0.106231 -0.159140 -0.191715 -0.182693 -0.129282 -0.208045 -0.264191 -0.362685 -0.297159 -0.288668 -0.280671 -0.286538 -0.321546 -0.351512 -0.414344 -0.422215 -0.424204 -0.427329 -0.386918 -0.334161 -0.271480 -0.352912 -0.453230 -0.488500 -0.480543 -0.470586 -0.522245 -0.554879 -0.568403 -0.582523 -0.568547 -0.599957 -0.620341 -0.648716 -0.636702 -0.631298 -0.653919 -0.677248 -0.759778 -0.695493 -0.701207 -0.652879 -0.666877 -0.702341 -0.722701 -0.684556 -0.735778 -0.727367 -0.694519 -0.656647 -0.727302 -0.603274 -0.538109 -0.511657 -0.443863 -0.670349 -0.450551 -0.475609 -0.441250 -0.428709 -0.481084 -0.390686 -0.329801 -0.373556 -0.302462 -0.242150 -0.274206 -0.203720 -0.161575 -0.118510 -0.146630 -0.114411 -0.032344 -0.066512 -0.083839 0.136500 -0.047861 0.019163 0.155653 -0.029476 -0.037745 0.183344 -0.039777 0.037232 0.271515 0.070309 0.084141 0.265093 0.259878 0.135162 0.142617 0.220495 0.152249 0.164067 0.208533 0.215965 0.212404 0.247932 0.171518 0.272564 0.282838 0.264032 0.268122 0.252134 0.255445 0.221309 0.199554 0.215078 0.221697 0.220158 0.192231 0.177913 0.169906 0.199708 0.183750 0.155292 0.221678 0.236762 0.132886 0.142651 0.147873 0.213174 0.208178 0.129360 0.135217 0.147358 0.208699 0.181446 0.166932 0.148676 0.161668 0.179217 0.177257 0.177602 0.269008 0.313327 0.301491 0.286200 0.194274 0.189109 0.261473 0.273935 0.272685 0.267057 0.224474 0.222459 0.266703 0.256817 0.243265 0.236346 0.235596 0.211290 0.270419 0.272843 0.228612 0.237380 0.268063 0.278054 0.289125 0.291108 0.286834 0.205735 0.201208 0.260201 0.264175 0.264617 0.252122 0.245090 0.237709 0.229952 0.214318 0.205401 0.207934 0.209054 0.226704 0.226704 0.197283 0.198089 0.200341 0.200341 0.200341 0.200341 0.202661 0.202661 0.202661 0.202661 0.202661 0.192660 0.192660 0.192660 0.192660 0.192660 0.202738 0.202738 0.202738 0.202738 0.202738 0.205237 0.205237 0.205237 0.205237 0.205237 0.195903 0.195903 0.195903 0.195903 0.195903 0.202266 0.202266 0.202266 0.202266 0.202266
0.000000 0.000000 0.000000 0.000000 0.000000 0.000000 0.000000 0.000000 0.000000 0.000000 0.000000 0.000000 0.000000 0.000000 0.000000 0.000000 0.000000 0.000000 0.000000 0.000000 0.000000 0.000000 0.000000 0.000000 0.328798 0.328798 0.328798 0.328798 0.328798 0.328798 0.328798 0.328798 0.384900 0.384900 0.384900 0.384900 0.384900 0.384900 0.384900 0.384900 0.384900 0.417029 0.417029 0.417029 0.417029 0.417029 0.417029 0.417029 0.400000 0.400000 0.400000 0.400000 0.400000 0.400000 0.400000 0.458831 0.458831 0.458831 0.458831 0.458831 0.417029 0.417029 0.417029 0.417029 0.417029 0.417029 0.436436 0.436436 0.436436 0.436436 0.436436 0.458831 0.458831 0.458831 0.458831 0.436436 0.436436 0.436436 0.436436 0.436436 0.436436 0.436436 0.436436 0.417029 0.417029 0.417029 0.417029 0.417029 0.417029 0.417029 0.417029 0.400000 0.400000 0.400000 0.400000 0.436436 0.436436 0.436436 0.436436 0.436436 0.436436 0.384900 0.384900 0.384900 0.384900 0.417029 0.417029 0.417029 0.417029 0.417029 0.417029 0.400000 0.400000 0.400000 0.400000 0.400000 0.400000 0.458831 0.458831 0.384900 0.384900 0.384900 0.384900 0.384900 0.384900 0.436436 0.436436 0.371391 0.371391 0.371391 0.371391 0.371391 0.371391 0.417029 0.417029 0.417029 0.417029 0.348155 0.348155 0.348155 0.400000 0.400000 0.348155 0.348155 0.348155 0.400000 0.400000 0.384900 0.384900 0.384900 0.384900 0.384900 0.384900 0.328798 0.328798 0.328798 0.371391 0.371391 0.371391 0.371391 0.359211 0.359211 0.359211 0.359211 0.359211 0.359211 0.359211 0.359211 0.348155 0.348155 0.348155 0.348155 0.348155 0.348155 0.338062 0.338062 0.338062 0.338062 0.338062 0.338062 0.400000 0.328798 0.328798 0.328798 0.328798 0.328798 0.328798 0.320256 0.320256 0.384900 0.320256 0.320256 0.312348 0.312348 0.312348 0.312348 0.384900 0.304997 0.304997 0.304997 0.304997 0.371391 0.304997 0.304997 0.298142 0.298142 0.359211 0.298142 0.298142 0.291730 0.291730 0.359211 0.291730 0.291730 0.348155 0.285714 0.285714 0.348155 0.285714 0.285714 0.348155 0.280056 0.280056 0.338062 0.274721 0.274721 0.338062 0.274721 0.274721 0.328798 0.269680 0.269680 0.328798 0.269680 0.269680 0.328798 0.264906 0.264906 0.320256 0.320256 0.260378 0.260378 0.320256 0.256074 0.256074 0.312348 0.312348 0.256074 0.256074 0.312348 0.251976 0.251976 0.304997 0.304997 0.248069 0.248069 0.304997 0.298142 0.244339 0.244339 0.298142 0.298142 0.298142 0.240772 0.240772 0.291730 0.291730 0.237356 0.237356 0.291730 0.285714 0.285714 0.234082 0.234082 0.285714 0.285714 0.280056 0.230940 0.230940 0.280056 0.280056 0.280056 0.274721 0.225018 0.225018 0.274721 0.274721 0.274721 0.269680 0.222222 0.222222 0.269680 0.269680 0.269680 0.264906 0.216930 0.216930 0.264906 0.264906 0.264906 0.260378 0.260378 0.260378 0.212000 0.212000 0.260378 0.256074 0.256074 0.256074 0.256074 0.256074 0.251976 0.207390 0.207390 0.251976 0.251976 0.251976 0.248069 0.248069 0.248069 0.248069 0.248069 0.244339 0.244339 0.244339 0.199007 0.199007 0.244339 0.240772 0.240772 0.240772 0.240772 0.240772 0.237356 0.237356 0.237356 0.237356 0.237356 0.234082 0.234082 0.234082 0.234082 0.234082 0.230940 0.230940 0.230940 0.230940 0.230940 0.227921 0.227921 0.227921 0.227921 0.227921 0.225018 0.225018 0.225018 0.225018 0.225018 0.222222 0.222222 0.222222 0.222222 0.222222
