# Output from CTFFind version 4.1.14, run on 2024-08-30 16:05:33
# Input file: CtfFind/job005/Movies/20170629_00028_frameImage_PS.mrc ; Number of micrographs: 1
# Pixel size: 1.400 Angstroms ; acceleration voltage: 200.0 keV ; spherical aberration: 1.40 mm ; amplitude contrast: 0.10
# Box size: 512 pixels ; min. res.: 30.0 Angstroms ; max. res.: 5.0 Angstroms ; min. def.: 5000.0 um; max. def. 50000.0 um; num. frames averaged: 1
# 6 lines per micrograph: #1 - spatial frequency (1/Angstroms); #2 - 1D rotational average of spectrum (assuming no astigmatism); #3 - 1D rotational average of spectrum; #4 - CTF fit; #5 - cross-correlation between spectrum and CTF fit; #6 - 2sigma of expected cross correlation of noise
0.000000 0.001396 0.002791 0.004187 0.005582 0.006978 0.008373 0.009769 0.011164 0.012560 0.013955 0.015351 0.016746 0.018142 0.019538 0.020933 0.022329 0.023724 0.025120 0.026515 0.027911 0.029306 0.030702 0.032097 0.033493 0.034888 0.036284 0.037680 0.039075 0.040471 0.041866 0.043262 0.044657 0.046053 0.047448 0.048844 0.050239 0.051635 0.053030 0.054426 0.055822 0.057217 0.058613 0.060008 0.061404 0.062799 0.064195 0.065590 0.066986 0.068381 0.069777 0.071172 0.072568 0.073964 0.075359 0.076755 0.078150 0.079546 0.080941 0.082337 0.083732 0.085128 0.086523 0.087919 0.089314 0.090710 0.092106 0.093501 0.094897 0.096292 0.097688 0.099083 0.100479 0.101874 0.103270 0.104665 0.106061 0.107456 0.108852 0.110247 0.111643 0.113039 0.114434 0.115830 0.117225 0.118621 0.120016 0.121412 0.122807 0.124203 0.125598 0.126994 0.128389 0.129785 0.131181 0.132576 0.133972 0.135367 0.136763 0.138158 0.139554 0.140949 0.142345 0.143740 0.145136 0.146531 0.147927 0.149323 0.150718 0.152114 0.153509 0.154905 0.156300 0.157696 0.159091 0.160487 0.161882 0.163278 0.164673 0.166069 0.167465 0.168860 0.170256 0.171651 0.173047 0.174442 0.175838 0.177233 0.178629 0.180024 0.181420 0.182815 0.184211 0.185607 0.187002 0.188398 0.189793 0.191189 0.192584 0.193980 0.195375 0.196771 0.198166 0.199562 0.200957 0.202353 0.203749 0.205144 0.206540 0.207935 0.209331 0.210726 0.212122 0.213517 0.214913 0.216308 0.217704 0.219099 0.220495 0.221891 0.223286 0.224682 0.226077 0.227473 0.228868 0.230264 0.231659 0.233055 0.234450 0.235846 0.237241 0.238637 0.240033 0.241428 0.242824 0.244219 0.245615 0.247010 0.248406 0.249801 0.251197 0.252592 0.253988 0.255383 0.256779 0.258175 0.259570 0.260966 0.262361 0.263757 0.265152 0.266548 0.267943 0.269339 0.270734 0.272130 0.273525 0.274921 0.276317 0.277712 0.279108 0.280503 0.281899 0.283294 0.284690 0.286085 0.287481 0.288876 0.290272 0.291667 0.293063 0.294458 0.295854 0.297250 0.298645 0.300041 0.301436 0.302832 0.304227 0.305623 0.307018 0.308414 0.309809 0.311205 0.312600 0.313996 0.315392 0.316787 0.318183 0.319578 0.320974 0.322369 0.323765 0.325160 0.326556 0.327951 0.329347 0.330742 0.332138 0.333534 0.334929 0.336325 0.337720 0.339116 0.340511 0.341907 0.343302 0.344698 0.346093 0.347489 0.348884 0.350280 0.351676 0.353071 0.354467 0.355862 0.357258 0.358653 0.360049 0.361444 0.362840 0.364235 0.365631 0.367026 0.368422 0.369818 0.371213 0.372609 0.374004 0.375400 0.376795 0.378191 0.379586 0.380982 0.382377 0.383773 0.385168 0.386564 0.387960 0.389355 0.390751 0.392146 0.393542 0.394937 0.396333 0.397728 0.399124 0.400519 0.401915 0.403310 0.404706 0.406102 0.407497 0.408893 0.410288 0.411684 0.413079 0.414475 0.415870 0.417266 0.418661 0.420057 0.421452 0.422848 0.424244 0.425639 0.427035 0.428430 0.429826 0.431221 0.432617 0.434012 0.435408 0.436803 0.438199 0.439594 0.440990 0.442386 0.443781 0.445177 0.446572 0.447968 0.449363 0.450759 0.452154 0.453550 0.454945 0.456341 0.457736 0.459132 0.460528 0.461923 0.463319 0.464714 0.466110 0.467505 0.468901 0.470296 0.471692 0.473087 0.474483 0.475878 0.477274 0.478669 0.480065 0.481461 0.482856 0.484252 0.485647 0.487043 0.488438 0.489834 0.491229 0.492625 0.494020 0.495416 0.496811 0.498207 0.499603 0.500998 0.502394 0.503789 0.505185
      -0.16228       -0.09869       -0.04553       -0.02655       -0.01854       -0.01164       -0.00910       -0.00611       -0.00410       -0.00279       -0.00129       -0.00068        0.00047        0.00109        0.00160        0.00221        0.00253        0.00313        0.00335        0.00370        0.00399        0.00424        0.00452        0.00069       -0.48349       -1.15922       -0.95807       -0.76307        0.08899        0.74267        0.90946        0.52008       -0.08801       -0.66205       -0.92893       -0.57778        0.04765        0.55713        0.54998       -0.17993       -0.44808       -0.55029       -0.28121        0.19642        0.27559       -0.26668       -0.40234       -0.49438        0.05468        0.39053        0.17280       -0.18174       -0.29247        0.14988        0.32584        0.08749       -0.26213       -0.07112        0.33061        0.28154       -0.16633       -0.15868        0.24506        0.23217       -0.29117       -0.24019        0.25742       -0.04801       -0.31642       -0.05319        0.18390       -0.24879       -0.28900        0.09916        0.04177       -0.36638        0.09363        0.20477       -0.27717       -0.03521        0.19453       -0.26747       -0.02335        0.15553       -0.22970        0.01848        0.20309       -0.13928        0.17719        0.00391       -0.05531        0.09272       -0.07488       -0.03848        0.14768       -0.06912        0.10206        0.14241        0.01826        0.12210        0.03314        0.05814       -0.02203       -0.03254        0.06187        0.01345        0.04064       -0.00046        0.06180        0.02214       -0.01675        0.03569       -0.06124        0.03080        0.01488        0.02967        0.03979        0.08979        0.05315        0.05674       -0.00158        0.03260       -0.03921       -0.02975        0.00949        0.05949        0.04798        0.02233       -0.01670        0.03652        0.04309        0.03684        0.01136       -0.02771       -0.03917        0.00690        0.01518       -0.01585       -0.05420        0.03030        0.02650        0.03097       -0.00635        0.03189        0.05366       -0.02476        0.01142        0.06438        0.05265       -0.04255        0.03820        0.00926       -0.03060        0.00992       -0.00483       -0.03054       -0.05522       -0.00489        0.00582       -0.05086        0.01697       -0.02471       -0.03251        0.00888        0.09267        0.01042        0.05330        0.05200        0.04953        0.02273        0.03057       -0.02234       -0.00118       -0.01412       -0.00654        0.00571       -0.04926       -0.00685        0.02427       -0.04375       -0.02964        0.03270       -0.02755        0.00839        0.00776        0.02657       -0.01021        0.00714        0.00378        0.00008       -0.03422        0.00105       -0.04053        0.04254       -0.01453        0.01959        0.03120        0.00702        0.06230        0.04783        0.00260        0.02089        0.01641       -0.00681       -0.01952       -0.00586        0.02546        0.01148       -0.02378       -0.00830        0.02200       -0.00184       -0.00036       -0.02520       -0.03356        0.04385        0.01672        0.02495       -0.00423        0.02333        0.04829        0.04883        0.06901        0.02491        0.06049        0.03987        0.03189        0.00343        0.00166        0.00633       -0.01369        0.00406        0.01707       -0.03309       -0.01958        0.02678       -0.00554       -0.02255        0.03842        0.00794       -0.01576        0.03169       -0.00309       -0.03229        0.04303        0.05666        0.01771       -0.01030        0.03167        0.03248        0.00988        0.00074        0.01497       -0.07452       -0.04383        0.00329       -0.01521       -0.04607       -0.04138        0.02262        0.02212       -0.05639        0.01590        0.01598        0.06754        0.07257        0.01704       -0.02018        0.04323        0.02809        0.04852        0.01551        0.02623       -0.01546        0.07057        0.03298        0.06986       -0.03557       -0.02008       -0.05711        0.01657        0.00166       -0.05397       -0.06376       -0.00060        0.00820        0.00947        0.05598       -0.00027        0.01225        0.00434        0.04982        0.00301        0.04973       -0.00067        0.01848        0.06285        0.00894        0.04770       -0.00979       -0.04200       -0.03583        0.04829       -0.03203       -0.08815       -0.00749        0.09927        0.08977        0.09215        0.01666       -0.03988       -0.01045        0.06207       -0.03113       -0.00273       -0.04042       -0.00540       -0.00391       -0.04399        0.06013        0.01048        0.00129        0.01500        0.06855        0.11557        0.02259        0.01347       -0.01501        0.06530       -0.00335        0.05548       -0.05405       -0.12871        0.08775        0.02340       -0.01469        0.02539       -0.07351        0.04805        0.01872       -0.02203       -0.00055        0.15852       -0.03074       -0.07967       -0.05583       -0.01145       -0.03211       -0.09208        0.07663        0.09379       -0.16240        0.05095       -0.09758       -0.11679       -0.13468        0.34241        0.28164        0.05822       -0.05295       -0.52472       -0.11071       -0.07133
-0.162284 -0.016103 -0.015721 -0.015084 -0.014192 -0.013045 -0.011644 -0.009988 -0.008077 -0.005911 -0.003491 -0.002385 -0.001398 -0.000326 0.000832 0.001959 0.002375 0.002817 0.003286 0.003506 0.003524 0.003544 -0.107769 -0.302297 -0.505468 -0.650025 -0.799218 -0.526694 0.014200 0.399427 0.594790 0.470485 -0.048755 -0.448842 -0.759353 -0.480578 -0.042157 0.355821 0.369376 -0.041677 -0.352639 -0.459437 -0.309224 0.094408 0.122863 -0.115435 -0.430605 -0.404596 -0.037048 0.271054 0.217676 -0.145488 -0.256759 0.095084 0.273194 0.086404 -0.168193 -0.092588 0.260347 0.281037 -0.073507 -0.151625 0.162608 0.253541 -0.242361 -0.277249 0.217999 0.094511 -0.356172 -0.162890 0.196934 -0.155814 -0.390214 0.080527 0.165636 -0.362017 -0.017714 0.342209 -0.195290 -0.137071 0.372286 -0.217090 -0.121240 0.339780 -0.257776 -0.156552 0.408572 -0.402544 0.116018 0.203093 -0.313686 0.323979 -0.049186 -0.194497 0.277441 -0.211780 0.135264 0.179563 -0.069626 0.240923 -0.101232 0.180611 -0.056879 -0.047740 0.150042 -0.058794 0.089524 -0.021360 0.025700 0.001763 0.009033 0.037216 -0.017643 0.005337 0.024505 0.003901 0.028572 0.030249 0.070380 0.080455 0.017854 0.040780 -0.028513 -0.009655 -0.018307 0.045021 0.070281 0.032010 -0.016920 0.014321 0.065255 0.036664 0.011137 0.007918 -0.073965 -0.036105 0.004570 0.019235 -0.062794 0.041754 -0.027220 -0.006364 -0.019337 0.049260 0.054704 -0.070012 0.052437 0.027721 -0.028010 0.025592 -0.031601 0.018082 0.005003 -0.052688 0.075223 -0.026165 -0.090099 0.042930 -0.037996 -0.059250 -0.008847 0.070942 -0.028238 0.043526 0.075111 0.052092 0.032852 0.077155 0.071157 0.086126 0.011004 0.029611 -0.031139 0.023778 -0.008102 0.025320 0.009434 -0.068443 0.042205 0.016363 -0.071951 -0.051260 -0.033600 0.064767 0.003537 0.039494 0.012263 -0.015627 -0.044940 -0.041176 -0.010515 0.006658 -0.045970 -0.012911 -0.055202 0.096754 0.011342 -0.052285 -0.041413 0.032316 -0.015939 0.058749 -0.030714 -0.008787 -0.006554 -0.066787 0.072945 -0.025973 -0.094285 -0.006255 0.003019 -0.028601 0.031341 -0.101957 -0.051208 0.074117 -0.014601 0.002217 -0.012944 -0.000272 0.032282 0.015210 0.081965 0.032469 0.019252 0.083366 0.071003 0.031906 0.033950 0.051145 -0.067481 0.019903 0.067343 -0.031706 -0.111866 0.045911 -0.002079 0.026694 -0.058801 -0.058701 0.075258 -0.042553 0.052213 -0.046541 0.040984 0.021625 -0.003456 -0.061579 0.013136 0.072456 0.009774 0.000135 -0.038658 -0.000164 -0.031837 -0.089315 0.020395 0.007160 -0.074127 -0.027563 0.020193 -0.020707 -0.018966 -0.016799 0.111053 0.007552 0.068647 0.061075 0.003473 -0.000280 0.084142 -0.015141 0.138727 0.028160 -0.033481 0.066892 0.045158 0.117630 0.073446 -0.017982 0.012214 -0.051091 0.028681 -0.069311 -0.046998 -0.069182 0.162333 -0.057312 0.097203 0.029322 -0.057825 -0.020832 0.059782 -0.025418 -0.079634 -0.015917 -0.067527 -0.026724 0.004248 0.013546 0.051076 -0.176347 0.032949 -0.103433 -0.008339 0.037361 -0.023821 0.113368 0.248243 0.056847 -0.032996 0.226540 0.057332 -0.026621 0.004848 -0.036712 0.034808 -0.019297 0.090873 -0.011180 0.115702 0.224780 0.052287 0.036040 0.204553 0.048275 0.153982 0.103620 -0.042140 0.186359 0.151700 0.067542 -0.123104 0.041550 0.050054 0.104754 0.135650 -0.050269 0.043596 0.038487 -0.160411 -0.136473 0.080034 -0.030549 -0.121948 0.008064 -0.087751 0.002251 -0.074043 0.076271 -0.407122 -0.113110 -0.114316 0.339168 -0.170862 0.360990 0.190401 0.007150 0.037643 0.596195 -0.127328 0.101008 -0.422543
0.100000 0.106164 0.124629 0.155305 0.197995 0.252324 0.317643 0.392912 0.476564 0.566359 0.659243 0.751237 0.837366 0.911679 0.967372 0.997078 0.993325 0.949213 0.859287 0.720577 0.533731 0.304098 0.042579 0.234004 0.503258 0.738552 0.911476 0.995432 0.970117 0.826369 0.570543 0.227320 0.160201 0.534141 0.829641 0.986421 0.962497 0.747284 0.370456 0.097183 0.553484 0.885753 0.999511 0.848547 0.456951 0.076393 0.597084 0.937583 0.972995 0.672366 0.124256 0.479953 0.907851 0.976502 0.637583 0.016782 0.621097 0.979789 0.872640 0.330314 0.389096 0.912056 0.943278 0.443123 0.320767 0.902046 0.934493 0.374850 0.435583 0.963002 0.832778 0.111997 0.697537 0.995235 0.534852 0.349262 0.960892 0.786837 0.052329 0.853503 0.907084 0.140927 0.761609 0.950958 0.222667 0.730806 0.953838 0.195888 0.773104 0.918680 0.059271 0.871559 0.815316 0.187811 0.974255 0.590344 0.520539 0.985939 0.198119 0.850147 0.781702 0.336114 0.999703 0.278051 0.838812 0.756155 0.429450 0.982638 0.058417 0.957869 0.489889 0.751536 0.793571 0.452970 0.955858 0.138110 0.999960 0.143745 0.964467 0.369375 0.888322 0.534349 0.803172 0.644594 0.731250 0.709396 0.686237 0.736714 0.675049 0.730596 0.699213 0.690129 0.755272 0.609685 0.834001 0.480469 0.918786 0.293903 0.984075 0.047007 0.995323 0.249935 0.912865 0.565112 0.701965 0.839743 0.350196 0.991626 0.110584 0.934772 0.587195 0.618442 0.929304 0.077683 0.972567 0.530621 0.624816 0.947229 0.034259 0.918368 0.711359 0.373520 0.999669 0.431612 0.638092 0.969518 0.207385 0.779274 0.915864 0.079045 0.834601 0.891011 0.056822 0.827084 0.912296 0.141462 0.753309 0.964988 0.328000 0.585199 0.999998 0.591948 0.286137 0.932757 0.862235 0.151018 0.662858 0.999834 0.644254 0.140179 0.824606 0.976813 0.522534 0.241210 0.854828 0.974964 0.555150 0.157041 0.778415 0.999031 0.728329 0.116467 0.540169 0.947812 0.942962 0.547373 0.061143 0.636456 0.965378 0.942297 0.593876 0.053971 0.493591 0.879436 0.998714 0.833235 0.445241 0.050368 0.523141 0.861938 0.998501 0.916935 0.649302 0.261579 0.165025 0.551839 0.837021 0.983237 0.979928 0.840179 0.594537 0.283397 0.050435 0.367892 0.637663 0.838581 0.959809 0.999991 0.965258 0.867074 0.719888 0.539150 0.339842 0.135131 0.064199 0.249912 0.416352 0.560390 0.680811 0.777977 0.853463 0.909607 0.949204 0.975204 0.990553 0.997994 1.000000 0.998704 0.995856 0.992828 0.990591 0.989734 0.990463 0.992600 0.995596 0.998500 0.999990 0.998359 0.991531 0.977101 0.952369 0.914477 0.860533 0.787755 0.693832 0.577127 0.437140 0.274844 0.093163 0.102848 0.305590 0.504839 0.688175 0.841426 0.949613 0.998455 0.976174 0.875592 0.696281 0.446283 0.143437 0.184720 0.502558 0.769700 0.946184 0.999017 0.909255 0.678419 0.332183 0.079217 0.486608 0.812304 0.985274 0.958269 0.722974 0.318726 0.169371 0.625486 0.929178 0.988968 0.773219 0.328600 0.223287 0.714518 0.981397 0.921314 0.538087 0.046024 0.621760 0.965355 0.927713 0.506398 0.136728 0.728411 0.997878 0.805004 0.222730 0.476910 0.942364 0.920255 0.403078 0.342577 0.902187 0.942783 0.420833 0.364200 0.928589 0.901266 0.279895 0.536153 0.989534 0.747883 0.036420 0.800556 0.966431 0.387673 0.501476 0.993781 0.672746 0.215291 0.925491 0.832433 0.002853 0.841203 0.906508 0.117142 0.789879 0.929370 0.143370 0.792663 0.915585 0.077042 0.848444
1.000000 1.000000 1.000000 1.000000 1.000000 1.000000 1.000000 1.000000 1.000000 1.000000 1.000000 1.000000 1.000000 1.000000 1.000000 1.000000 1.000000 1.000000 1.000000 1.000000 1.000000 1.000000 1.000000 1.000000 -0.482331 -0.482331 -0.482331 -0.482331 -0.513325 -0.513325 -0.513325 -0.513325 -0.513325 -0.513325 -0.513325 -0.495876 -0.468466 -0.407347 -0.465427 -0.497701 -0.478028 -0.468539 -0.503782 -0.580213 -0.561981 -0.517254 -0.452542 -0.483062 -0.494000 -0.437499 -0.468285 -0.347312 -0.362327 -0.338705 -0.284640 -0.300854 -0.216934 -0.234515 -0.178274 -0.141871 -0.137124 -0.079040 0.078627 0.038786 0.092358 0.124240 0.149404 0.164841 0.314023 0.249211 0.306919 0.380100 0.403547 0.478297 0.451480 0.537348 0.542908 0.585857 0.599678 0.692808 0.702406 0.703483 0.748331 0.742375 0.747428 0.775327 0.739377 0.790832 0.805477 0.799579 0.795716 0.701623 0.621217 0.607195 0.589404 0.588730 0.522854 0.330556 0.306644 0.284486 0.141205 0.064319 0.222713 0.216478 0.134355 0.007287 0.106287 -0.095348 -0.158168 -0.182060 -0.334254 -0.327300 -0.305101 -0.267302 -0.322219 -0.292718 -0.245950 -0.344370 -0.291679 -0.237765 -0.282788 -0.242199 -0.225755 -0.196857 -0.252302 -0.295111 -0.366902 -0.495819 -0.650672 -0.655261 -0.614994 -0.563030 -0.555589 -0.556935 -0.561477 -0.361602 -0.335072 -0.322282 -0.344677 -0.502528 -0.193356 -0.200961 -0.234815 -0.208142 -0.227806 -0.251531 -0.297635 -0.317118 -0.190895 -0.330026 -0.291252 -0.249964 -0.262401 -0.068840 -0.320766 -0.239581 -0.188410 -0.143394 -0.136762 -0.199791 -0.210922 -0.040990 -0.216301 -0.226222 -0.157712 -0.158830 -0.251163 -0.162344 -0.217767 -0.372517 -0.207578 -0.225462 -0.365047 -0.255305 -0.256690 -0.308473 -0.313717 -0.311168 -0.261244 -0.293025 -0.279104 -0.309688 -0.304244 -0.209644 -0.203352 -0.278800 -0.188918 -0.196256 -0.175731 -0.214258 -0.192592 -0.218618 -0.130799 -0.139118 -0.205008 -0.086625 -0.061445 -0.079573 -0.052629 -0.069839 -0.052757 -0.057212 -0.043006 -0.018750 -0.005229 0.081992 0.113353 0.151027 0.056404 0.113095 0.074809 0.089875 0.097149 0.105074 0.079848 0.192789 0.193492 0.247575 0.224909 0.213937 0.170454 0.156159 0.246466 0.246394 0.251075 0.256068 0.219954 0.189861 0.186668 0.201147 0.200392 0.180116 0.178999 0.237566 0.225201 0.209492 0.190652 0.165411 0.160861 0.245158 0.240220 0.229173 0.251646 0.242464 0.232635 0.229970 0.198123 0.195128 0.199736 0.200615 0.200597 0.201306 0.205656 0.206733 0.213062 0.218623 0.227233 0.231193 0.224544 0.220339 0.218485 0.221213 0.219654 0.223271 0.214312 0.211879 0.210864 0.208126 0.178114 0.184297 0.188895 0.187507 0.213283 0.211221 0.211231 0.211431 0.211108 0.220330 0.216671 0.216786 0.217582 0.217100 0.234686 0.237853 0.241847 0.212286 0.202832 0.210232 0.219557 0.225186 0.255625 0.257014 0.188400 0.189790 0.191641 0.140465 0.142529 0.143645 0.153868 0.164872 0.181638 0.193658 0.179378 0.179626 0.103365 0.067798 0.068473 0.079619 0.114268 0.120765 0.081101 0.080854 0.081461 0.107474 0.104866 0.058612 0.054418 0.056270 0.065309 0.053216 0.047985 0.048917 0.048917 0.048917 0.048917 0.052566 0.052566 0.052566 0.052566 0.048374 0.048374 0.048374 0.048374 0.039474 0.039474 0.039474 0.039474 0.028605 0.028605 0.028605 0.028605 0.017552 0.017552 0.017552 0.017552 0.037319 0.037319 0.037319 0.037319 0.026984 0.026984 0.026984 0.026984 0.017439 0.017439 0.017439 0.008446 0.008446 0.008446 0.008446 -0.000147 -0.000147 -0.000147
0.000000 0.000000 0.000000 0.000000 0.000000 0.000000 0.000000 0.000000 0.000000 0.000000 0.000000 0.000000 0.000000 0.000000 0.000000 0.000000 0.000000 0.000000 0.000000 0.000000 0.000000 0.000000 0.000000 0.000000 0.359211 0.359211 0.359211 0.359211 0.417029 0.417029 0.417029 0.417029 0.417029 0.417029 0.417029 0.417029 0.458831 0.458831 0.458831 0.458831 0.458831 0.458831 0.436436 0.436436 0.436436 0.436436 0.436436 0.436436 0.458831 0.458831 0.458831 0.458831 0.458831 0.436436 0.436436 0.436436 0.436436 0.436436 0.458831 0.458831 0.458831 0.458831 0.458831 0.458831 0.458831 0.458831 0.436436 0.436436 0.436436 0.436436 0.458831 0.458831 0.458831 0.417029 0.417029 0.417029 0.417029 0.458831 0.458831 0.458831 0.458831 0.458831 0.458831 0.436436 0.436436 0.436436 0.436436 0.436436 0.436436 0.436436 0.436436 0.436436 0.417029 0.417029 0.417029 0.458831 0.458831 0.400000 0.400000 0.400000 0.458831 0.458831 0.400000 0.400000 0.400000 0.458831 0.458831 0.384900 0.384900 0.384900 0.436436 0.436436 0.436436 0.436436 0.371391 0.371391 0.371391 0.417029 0.417029 0.417029 0.417029 0.400000 0.400000 0.400000 0.400000 0.400000 0.400000 0.400000 0.400000 0.384900 0.384900 0.384900 0.384900 0.384900 0.384900 0.371391 0.371391 0.371391 0.371391 0.458831 0.359211 0.359211 0.359211 0.359211 0.359211 0.359211 0.359211 0.359211 0.436436 0.348155 0.348155 0.348155 0.348155 0.417029 0.338062 0.338062 0.338062 0.338062 0.400000 0.328798 0.328798 0.400000 0.328798 0.328798 0.320256 0.320256 0.384900 0.320256 0.320256 0.384900 0.312348 0.312348 0.384900 0.304997 0.304997 0.371391 0.304997 0.304997 0.371391 0.298142 0.298142 0.359211 0.359211 0.291730 0.291730 0.359211 0.291730 0.291730 0.348155 0.348155 0.285714 0.285714 0.348155 0.348155 0.280056 0.280056 0.338062 0.338062 0.274721 0.274721 0.338062 0.328798 0.328798 0.269680 0.269680 0.328798 0.328798 0.320256 0.264906 0.264906 0.320256 0.320256 0.320256 0.256074 0.256074 0.312348 0.312348 0.312348 0.312348 0.304997 0.251976 0.251976 0.304997 0.304997 0.304997 0.298142 0.298142 0.244339 0.244339 0.298142 0.298142 0.291730 0.291730 0.291730 0.291730 0.291730 0.285714 0.234082 0.234082 0.285714 0.285714 0.285714 0.280056 0.280056 0.280056 0.280056 0.280056 0.274721 0.274721 0.274721 0.274721 0.274721 0.269680 0.269680 0.269680 0.269680 0.219529 0.219529 0.264906 0.264906 0.264906 0.264906 0.264906 0.260378 0.260378 0.260378 0.260378 0.256074 0.256074 0.256074 0.256074 0.256074 0.251976 0.251976 0.251976 0.251976 0.251976 0.248069 0.248069 0.248069 0.248069 0.248069 0.244339 0.244339 0.244339 0.244339 0.240772 0.240772 0.240772 0.240772 0.240772 0.237356 0.237356 0.237356 0.237356 0.234082 0.234082 0.234082 0.234082 0.234082 0.230940 0.230940 0.230940 0.230940 0.227921 0.227921 0.227921 0.227921 0.225018 0.225018 0.225018 0.225018 0.225018 0.222222 0.222222 0.222222 0.222222 0.219529 0.219529 0.219529 0.219529 0.216930 0.216930 0.216930 0.216930 0.214423 0.214423 0.214423 0.214423 0.212000 0.212000 0.212000 0.212000 0.209657 0.209657 0.209657 0.209657 0.207390 0.207390 0.207390 0.207390 0.205196 0.205196 0.205196 0.205196 0.203069 0.203069 0.203069 0.203069 0.201008 0.201008 0.201008 0.201008 0.199007 0.199007 0.199007 0.197066 0.197066 0.197066 0.197066 0.195180 0.195180 0.195180
