# Output from CTFFind version 4.1.14, run on 2024-08-30 16:05:31
# Input file: CtfFind/job005/Movies/20170629_00030_frameImage_PS.mrc ; Number of micrographs: 1
# Pixel size: 1.400 Angstroms ; acceleration voltage: 200.0 keV ; spherical aberration: 1.40 mm ; amplitude contrast: 0.10
# Box size: 512 pixels ; min. res.: 30.0 Angstroms ; max. res.: 5.0 Angstroms ; min. def.: 5000.0 um; max. def. 50000.0 um; num. frames averaged: 1
# 6 lines per micrograph: #1 - spatial frequency (1/Angstroms); #2 - 1D rotational average of spectrum (assuming no astigmatism); #3 - 1D rotational average of spectrum; #4 - CTF fit; #5 - cross-correlation between spectrum and CTF fit; #6 - 2sigma of expected cross correlation of noise
0.000000 0.001396 0.002791 0.004187 0.005582 0.006978 0.008373 0.009769 0.011164 0.012560 0.013955 0.015351 0.016746 0.018142 0.019538 0.020933 0.022329 0.023724 0.025120 0.026515 0.027911 0.029306 0.030702 0.032097 0.033493 0.034888 0.036284 0.037680 0.039075 0.040471 0.041866 0.043262 0.044657 0.046053 0.047448 0.048844 0.050239 0.051635 0.053030 0.054426 0.055822 0.057217 0.058613 0.060008 0.061404 0.062799 0.064195 0.065590 0.066986 0.068381 0.069777 0.071172 0.072568 0.073964 0.075359 0.076755 0.078150 0.079546 0.080941 0.082337 0.083732 0.085128 0.086523 0.087919 0.089314 0.090710 0.092106 0.093501 0.094897 0.096292 0.097688 0.099083 0.100479 0.101874 0.103270 0.104665 0.106061 0.107456 0.108852 0.110247 0.111643 0.113039 0.114434 0.115830 0.117225 0.118621 0.120016 0.121412 0.122807 0.124203 0.125598 0.126994 0.128389 0.129785 0.131181 0.132576 0.133972 0.135367 0.136763 0.138158 0.139554 0.140949 0.142345 0.143740 0.145136 0.146531 0.147927 0.149323 0.150718 0.152114 0.153509 0.154905 0.156300 0.157696 0.159091 0.160487 0.161882 0.163278 0.164673 0.166069 0.167465 0.168860 0.170256 0.171651 0.173047 0.174442 0.175838 0.177233 0.178629 0.180024 0.181420 0.182815 0.184211 0.185607 0.187002 0.188398 0.189793 0.191189 0.192584 0.193980 0.195375 0.196771 0.198166 0.199562 0.200957 0.202353 0.203749 0.205144 0.206540 0.207935 0.209331 0.210726 0.212122 0.213517 0.214913 0.216308 0.217704 0.219099 0.220495 0.221891 0.223286 0.224682 0.226077 0.227473 0.228868 0.230264 0.231659 0.233055 0.234450 0.235846 0.237241 0.238637 0.240033 0.241428 0.242824 0.244219 0.245615 0.247010 0.248406 0.249801 0.251197 0.252592 0.253988 0.255383 0.256779 0.258175 0.259570 0.260966 0.262361 0.263757 0.265152 0.266548 0.267943 0.269339 0.270734 0.272130 0.273525 0.274921 0.276317 0.277712 0.279108 0.280503 0.281899 0.283294 0.284690 0.286085 0.287481 0.288876 0.290272 0.291667 0.293063 0.294458 0.295854 0.297250 0.298645 0.300041 0.301436 0.302832 0.304227 0.305623 0.307018 0.308414 0.309809 0.311205 0.312600 0.313996 0.315392 0.316787 0.318183 0.319578 0.320974 0.322369 0.323765 0.325160 0.326556 0.327951 0.329347 0.330742 0.332138 0.333534 0.334929 0.336325 0.337720 0.339116 0.340511 0.341907 0.343302 0.344698 0.346093 0.347489 0.348884 0.350280 0.351676 0.353071 0.354467 0.355862 0.357258 0.358653 0.360049 0.361444 0.362840 0.364235 0.365631 0.367026 0.368422 0.369818 0.371213 0.372609 0.374004 0.375400 0.376795 0.378191 0.379586 0.380982 0.382377 0.383773 0.385168 0.386564 0.387960 0.389355 0.390751 0.392146 0.393542 0.394937 0.396333 0.397728 0.399124 0.400519 0.401915 0.403310 0.404706 0.406102 0.407497 0.408893 0.410288 0.411684 0.413079 0.414475 0.415870 0.417266 0.418661 0.420057 0.421452 0.422848 0.424244 0.425639 0.427035 0.428430 0.429826 0.431221 0.432617 0.434012 0.435408 0.436803 0.438199 0.439594 0.440990 0.442386 0.443781 0.445177 0.446572 0.447968 0.449363 0.450759 0.452154 0.453550 0.454945 0.456341 0.457736 0.459132 0.460528 0.461923 0.463319 0.464714 0.466110 0.467505 0.468901 0.470296 0.471692 0.473087 0.474483 0.475878 0.477274 0.478669 0.480065 0.481461 0.482856 0.484252 0.485647 0.487043 0.488438 0.489834 0.491229 0.492625 0.494020 0.495416 0.496811 0.498207 0.499603 0.500998 0.502394 0.503789 0.505185
      -0.23966       -0.14820       -0.07174       -0.04444       -0.03292       -0.02300       -0.01935       -0.01504       -0.01215       -0.01028       -0.00812       -0.00725       -0.00558       -0.00470       -0.00396       -0.00308       -0.00262       -0.00176       -0.00144       -0.00094       -0.00053       -0.00016        0.00024       -0.00689       -0.91595       -0.99808       -0.33465        0.71522        1.22923        1.10939        0.35571       -0.61068       -1.05950       -0.88112        0.05571        0.62724        0.59506       -0.07520       -0.68662       -0.82410       -0.30741        0.27730        0.26207       -0.45501       -0.76397       -0.41051        0.22889        0.35251       -0.11288       -0.55135        0.04076        0.46399        0.20160       -0.39593       -0.07127        0.34737        0.21428       -0.29972       -0.02942        0.44397        0.14888       -0.32974        0.07834        0.28620       -0.14567       -0.22757        0.30096        0.05398       -0.39294        0.02556        0.03526       -0.42694       -0.01069       -0.03623       -0.35250       -0.04502        0.05847       -0.24114        0.14636       -0.04181       -0.11054        0.09532       -0.09398       -0.00876        0.05742       -0.08704        0.01205        0.02883       -0.05398        0.02201        0.02164        0.10086        0.08039        0.06248        0.11076        0.04874        0.03341        0.03804       -0.02854       -0.01031       -0.01840        0.00752        0.09811        0.08916        0.05497        0.04091        0.05250       -0.00803       -0.00380        0.03684       -0.03153       -0.05757        0.01307       -0.05485       -0.05008       -0.03507        0.06603        0.01249       -0.04603        0.03137        0.06127       -0.00251       -0.02311        0.02596       -0.04639       -0.01618       -0.00960        0.05568        0.03453       -0.02263        0.03636       -0.01878       -0.01856        0.02989       -0.00332        0.03411       -0.01729       -0.00876       -0.02379        0.01692        0.03347       -0.04834        0.01000        0.02221       -0.03897       -0.03195       -0.02907       -0.07681       -0.04401       -0.02482        0.00342       -0.01371        0.05120        0.06233        0.02815        0.02839        0.04916        0.04546       -0.01759        0.05526       -0.00954        0.02486       -0.02132       -0.01864       -0.01808        0.00451       -0.01120        0.00758       -0.03717        0.03313        0.01018        0.00837       -0.01559       -0.00856        0.03074        0.00157        0.04447        0.04199       -0.01715       -0.02703        0.02931       -0.00009        0.02976       -0.01974        0.00167        0.03105        0.01343       -0.04777       -0.03155       -0.01501        0.02089        0.00144       -0.00211       -0.00940       -0.00095       -0.02773        0.01016        0.03893        0.02684       -0.00335        0.01035       -0.00696       -0.00025        0.00346        0.07270        0.04573        0.02040        0.04165       -0.00881        0.03823        0.00902        0.04441        0.02524        0.02197       -0.00817       -0.00753        0.01906       -0.00174       -0.01650       -0.01310       -0.00386       -0.04442        0.03522        0.00292        0.01633        0.03053        0.03317        0.01800        0.01884        0.00927        0.05385        0.05951        0.00286       -0.02894       -0.03236       -0.01851        0.02931        0.01626       -0.03795       -0.03884       -0.04161       -0.00267       -0.01572       -0.04306        0.00555       -0.00520        0.00550       -0.02592       -0.01551       -0.05374        0.03641        0.03625       -0.04134       -0.03309       -0.00390        0.04597        0.01070       -0.00958        0.02766        0.07182        0.03040        0.05042        0.03521       -0.01922       -0.06526        0.01254        0.01482        0.00877        0.00404        0.02013       -0.01158        0.03446        0.07418       -0.00461       -0.05183        0.03730        0.02373        0.05802        0.06081        0.02347        0.03522       -0.02547        0.05491        0.00311       -0.02990        0.02320        0.01228       -0.02118        0.03044        0.00135       -0.05589        0.04626       -0.01757       -0.02723        0.04709        0.02763        0.04345       -0.00412       -0.03675       -0.09982        0.05999        0.05368       -0.00368       -0.02820       -0.06020        0.00256        0.04868       -0.01721       -0.03784       -0.00229        0.09541        0.07717        0.00673        0.02721       -0.05489        0.08965        0.04902       -0.10667       -0.06991       -0.00127        0.02787        0.02455        0.04059        0.09290       -0.04190       -0.07230        0.00471        0.03694        0.05365        0.04643       -0.06578        0.03601        0.03138       -0.01793        0.00674        0.06899       -0.01077       -0.08020       -0.17300       -0.15526       -0.08010       -0.04099       -0.03558       -0.05757        0.00566       -0.06870       -0.11189       -0.03631        0.14876        0.04796        0.10958        0.08714        0.14272        0.07371        0.09543        0.19034        0.07223       -0.20913       -0.05653       -0.12023       -0.45741       -0.69478        0.08098
-0.239657 -0.029427 -0.028879 -0.027965 -0.026686 -0.025041 -0.023030 -0.020654 -0.017912 -0.014805 -0.011332 -0.009568 -0.008201 -0.006715 -0.005110 -0.003471 -0.002866 -0.002222 -0.001539 -0.001225 -0.001285 -0.001348 -0.130295 -0.375406 -0.631407 -0.382121 -0.086869 0.311185 0.790372 0.833646 0.254483 -0.276859 -0.730083 -0.639980 -0.053509 0.293346 0.514053 -0.044534 -0.469196 -0.717330 -0.308582 0.054681 0.229625 -0.332157 -0.580505 -0.442946 0.144172 0.249934 -0.084132 -0.343220 -0.099220 0.446374 0.225367 -0.279331 -0.113510 0.266686 0.212935 -0.155782 -0.089993 0.326700 0.198058 -0.206773 -0.013564 0.250432 -0.087432 -0.219280 0.268711 0.149558 -0.461492 -0.070362 0.103267 -0.387820 -0.072293 0.155271 -0.439268 -0.085528 0.126609 -0.402623 0.079709 0.030270 -0.295095 0.193398 -0.142522 -0.077806 0.137088 -0.159983 -0.002459 0.024814 -0.095053 0.055403 -0.048604 0.127355 0.080904 0.043896 0.137898 0.025632 0.039356 0.071306 -0.033155 -0.009791 -0.007778 -0.043641 0.093961 0.116854 0.116292 -0.021517 0.105653 -0.021900 -0.063490 0.147511 -0.057778 -0.071897 0.016337 -0.041127 -0.057801 -0.059716 0.048990 0.032627 -0.061374 0.013590 0.115355 -0.071101 0.050900 0.024098 -0.069781 0.020469 -0.060326 0.053665 0.070033 -0.040915 -0.045620 0.008527 -0.026969 -0.001879 0.024286 0.019779 0.000535 -0.005990 -0.023488 -0.049032 0.077735 0.017416 -0.050915 0.001574 -0.051979 -0.021494 -0.076630 -0.018778 -0.115892 -0.045369 -0.050682 0.047215 0.018124 0.067107 0.081781 -0.031559 0.076610 0.014116 0.019258 0.074564 0.026595 0.019635 0.027695 -0.062976 0.054552 -0.075681 -0.039355 0.013239 0.035350 -0.012761 0.087830 -0.006536 0.016074 -0.059463 0.049360 0.041042 -0.002910 0.035950 0.018301 -0.010949 0.047485 -0.025374 0.033231 -0.025391 -0.021379 0.041610 -0.067871 0.025547 -0.022607 -0.059330 0.053017 -0.027604 0.024646 0.002998 0.042495 0.001716 0.077982 -0.005505 0.024666 0.056975 -0.004721 0.023565 -0.008063 -0.004290 0.017060 0.113778 0.053654 0.039218 0.056542 0.132815 0.010867 -0.021504 0.047710 0.068415 -0.041624 0.004967 -0.028340 -0.004551 0.014693 -0.006440 -0.091686 -0.022934 -0.044454 -0.013999 -0.032535 0.008776 0.064969 0.041386 0.096324 0.007443 -0.077456 0.022201 -0.034770 0.019430 -0.009493 -0.027374 -0.002685 -0.051679 0.013948 -0.039002 0.020229 -0.050208 0.038116 0.006273 0.050920 0.054165 0.088040 0.011668 -0.078189 -0.007586 0.014982 -0.051559 0.010919 -0.068118 -0.061235 0.023243 0.038291 0.022302 0.069501 0.007364 0.123401 -0.027964 -0.075694 0.020085 0.002078 0.057443 -0.082752 0.003245 0.021124 0.016256 -0.035898 0.091785 0.017640 0.057203 0.000987 -0.105256 0.025619 0.005515 0.109800 0.148791 -0.012417 0.006940 -0.072652 0.202771 0.018338 -0.161521 0.083692 0.059570 0.018839 -0.024656 0.024238 0.068770 -0.030922 -0.091838 0.048868 0.040930 0.095221 0.052647 0.043500 -0.059740 -0.105296 0.084682 0.042647 -0.026035 0.064467 -0.101465 -0.002633 0.199306 -0.028543 -0.084212 0.153140 0.044105 -0.017980 -0.140837 0.124441 -0.056571 0.102975 -0.038468 -0.067480 0.125201 0.080337 0.078541 0.067735 0.092827 0.138064 -0.273108 -0.011695 -0.157522 0.195945 0.258455 0.066531 0.043747 0.011998 0.362461 0.075016 -0.188835 -0.259661 -0.027207 -0.100624 -0.056154 -0.160910 0.258350 0.057357 0.167454 0.098890 -0.134427 0.037346 0.003994 -0.052325 0.092840 0.130236 -0.332885 0.021144 -0.030588 -0.056490 0.378387 -0.333022 0.542261 0.093021 0.132411 0.080764 -0.474896 -0.606482
0.100000 0.106858 0.127401 0.161513 0.208938 0.269183 0.341385 0.424152 0.515379 0.612061 0.710119 0.804277 0.888028 0.953730 0.992900 0.996745 0.956966 0.866848 0.722591 0.524780 0.279801 0.000931 0.291224 0.569360 0.801458 0.954361 0.998835 0.915670 0.701892 0.375697 0.021526 0.427731 0.768318 0.969752 0.976936 0.770775 0.380872 0.112113 0.588503 0.916735 0.991112 0.770239 0.302483 0.274803 0.769353 0.996820 0.853988 0.373597 0.268264 0.807451 0.998700 0.733912 0.114335 0.571753 0.974753 0.865056 0.277125 0.477142 0.960652 0.865715 0.225216 0.569568 0.993053 0.736667 0.046189 0.804163 0.965026 0.380224 0.513438 0.996072 0.646364 0.264381 0.949501 0.778431 0.119048 0.910516 0.818134 0.094302 0.917097 0.783864 0.191628 0.963610 0.659644 0.402639 0.999968 0.404711 0.688280 0.929489 0.010100 0.941446 0.632086 0.531081 0.969684 0.052472 0.943353 0.573078 0.645844 0.897222 0.224321 0.999962 0.193843 0.926690 0.532774 0.748609 0.767010 0.531960 0.905258 0.324356 0.972410 0.153567 0.996260 0.032439 0.999968 0.034900 0.998839 0.047888 0.999421 0.006576 0.999407 0.088927 0.987667 0.236680 0.944661 0.428725 0.844333 0.645298 0.659306 0.848916 0.371201 0.981964 0.013414 0.973537 0.445050 0.761348 0.820966 0.330175 0.998659 0.243912 0.848258 0.772833 0.341798 0.999995 0.360625 0.733019 0.908890 0.024154 0.922865 0.736772 0.291818 0.986628 0.594789 0.432334 0.998593 0.536793 0.459278 0.998002 0.578631 0.376974 0.981221 0.709038 0.174356 0.902378 0.881831 0.155854 0.684108 0.996874 0.571692 0.258246 0.899071 0.924930 0.343947 0.448687 0.954626 0.883571 0.302200 0.440476 0.934179 0.931715 0.458121 0.231925 0.802040 0.999064 0.756148 0.199244 0.428629 0.878776 0.992862 0.749574 0.254036 0.315029 0.773669 0.990862 0.920128 0.600339 0.132239 0.357361 0.751495 0.969216 0.978083 0.792979 0.464910 0.064430 0.334779 0.669936 0.897334 0.995896 0.965702 0.823697 0.597854 0.321047 0.025968 0.258820 0.511140 0.716051 0.865754 0.958630 0.997807 0.989779 0.942951 0.866495 0.769372 0.659889 0.545080 0.430727 0.321339 0.220170 0.129439 0.050567 0.015594 0.068815 0.108927 0.136055 0.150272 0.151711 0.140351 0.116130 0.078948 0.028786 0.034353 0.110225 0.198068 0.296668 0.404010 0.517134 0.631812 0.742742 0.843251 0.925467 0.980702 0.999969 0.974734 0.898054 0.765794 0.578182 0.340928 0.066505 0.225624 0.509391 0.753958 0.927052 0.999231 0.949673 0.771801 0.478038 0.102296 0.301432 0.665003 0.917400 0.999302 0.879162 0.566406 0.117240 0.370662 0.776793 0.987423 0.930018 0.602623 0.086365 0.467403 0.878039 0.995105 0.758670 0.236027 0.386980 0.865204 0.990846 0.690483 0.076404 0.582378 0.971692 0.884838 0.343465 0.387070 0.915962 0.935897 0.412730 0.363806 0.925547 0.907155 0.296956 0.519098 0.986377 0.760425 0.020439 0.793926 0.967535 0.383785 0.514045 0.996403 0.642168 0.269879 0.950917 0.777248 0.116847 0.907283 0.826514 0.071130 0.903384 0.810794 0.134840 0.941871 0.723173 0.304042 0.991240 0.532580 0.558012 0.982572 0.204446 0.832816 0.816464 0.256037 0.996338 0.405983 0.739537 0.865833 0.225770 0.998401 0.323042 0.831361 0.742986 0.476756 0.963088 0.060122 0.990170 0.322958 0.874974 0.621092 0.680104 0.821370 0.460034 0.935594 0.252754 0.986882 0.080417 0.999943 0.047260 0.995641 0.127469 0.988713 0.160540 0.987178 0.147065 0.992424
1.000000 1.000000 1.000000 1.000000 1.000000 1.000000 1.000000 1.000000 1.000000 1.000000 1.000000 1.000000 1.000000 1.000000 1.000000 1.000000 1.000000 1.000000 1.000000 1.000000 1.000000 1.000000 1.000000 1.000000 -0.415308 -0.415308 -0.476675 -0.476675 -0.476675 -0.476675 -0.476675 -0.476675 -0.476675 -0.476675 -0.450012 -0.391847 -0.420065 -0.420372 -0.467639 -0.406060 -0.449321 -0.466017 -0.442751 -0.404051 -0.398080 -0.325985 -0.321105 -0.350052 -0.281369 -0.267952 -0.235920 -0.240318 -0.304425 -0.224424 -0.105844 -0.050914 -0.103012 0.027611 -0.009724 0.051864 0.103751 0.086036 0.215385 0.217684 0.308015 0.351672 0.374256 0.497261 0.512856 0.578387 0.628630 0.674643 0.772455 0.737725 0.720790 0.761385 0.753974 0.809328 0.826809 0.844585 0.828829 0.809448 0.763425 0.789266 0.800465 0.793606 0.773337 0.774039 0.769386 0.683439 0.728768 0.618125 0.525753 0.500399 0.495207 0.416081 0.420769 0.417645 0.320621 0.285661 0.327282 0.251452 0.186437 0.251189 0.138558 0.148815 0.096613 0.001845 0.009644 0.022495 0.083304 0.076340 0.059578 0.060623 0.075882 0.044941 -0.007087 0.033652 0.018429 0.027091 0.053640 0.105591 0.148394 0.174521 0.174920 0.112682 0.050122 -0.034930 -0.043066 0.000760 0.060148 -0.079222 -0.029361 -0.008140 0.040360 -0.002768 -0.082524 -0.193135 -0.193606 -0.189232 0.001789 -0.166907 -0.112380 -0.116094 -0.159853 -0.350693 -0.120825 -0.089016 -0.290728 -0.126778 -0.138204 -0.280064 -0.165732 -0.187505 -0.191482 -0.141188 -0.145899 -0.132372 -0.134660 -0.115908 0.054830 -0.043990 -0.031564 -0.040092 0.020390 -0.008307 0.055396 0.055357 0.103908 0.124202 0.151011 0.161109 0.077827 0.087403 0.115280 0.142207 0.109491 0.112131 0.241115 0.268537 0.171762 0.207565 0.244812 0.232215 0.253828 0.168951 0.252260 0.214772 0.258374 0.231256 0.224225 0.244839 0.245278 0.215673 0.277965 0.289295 0.319372 0.241911 0.256615 0.270826 0.255416 0.266588 0.268914 0.277404 0.277415 0.262252 0.300890 0.274923 0.281080 0.289826 0.289817 0.290235 0.282431 0.287434 0.303875 0.317913 0.324899 0.312606 0.322926 0.325339 0.313254 0.324303 0.333364 0.331519 0.364223 0.347914 0.332972 0.321381 0.318971 0.319223 0.329880 0.269008 0.279722 0.281597 0.335160 0.325386 0.318414 0.318140 0.317649 0.316317 0.349506 0.340486 0.340059 0.298798 0.301148 0.324324 0.324413 0.324869 0.324339 0.333117 0.367401 0.356449 0.351601 0.309416 0.299801 0.285390 0.279172 0.279167 0.257748 0.246088 0.244657 0.221548 0.204175 0.201549 0.160407 0.146613 0.133358 0.138864 0.169905 0.159978 0.160346 0.164526 0.160942 0.134731 0.116742 0.073263 0.056992 0.046637 0.052177 0.071133 0.011348 0.005134 0.003585 -0.036369 -0.044402 -0.062301 -0.023605 -0.023820 -0.029591 -0.012201 0.010248 0.009058 -0.027447 -0.023418 -0.021788 -0.041584 -0.050083 -0.074489 -0.082217 -0.075736 -0.078307 -0.056514 -0.057158 -0.069507 -0.074448 -0.072297 -0.080597 -0.105528 -0.074377 -0.061511 -0.045570 -0.085148 -0.110250 -0.127469 -0.129637 -0.158224 -0.127778 -0.161796 -0.148029 -0.150838 -0.150838 -0.150838 -0.150838 -0.140497 -0.140497 -0.140497 -0.133056 -0.133056 -0.133056 -0.133056 -0.117479 -0.117479 -0.117479 -0.125055 -0.125055 -0.125055 -0.125055 -0.110183 -0.110183 -0.110183 -0.109436 -0.109436 -0.109436 -0.109436 -0.089787 -0.089787 -0.089787 -0.083512 -0.083512 -0.083512 -0.083512 -0.089673 -0.089673 -0.089673 -0.099782 -0.099782 -0.099782 -0.099782 -0.090086 -0.090086 -0.090086 -0.094330 -0.094330
0.000000 0.000000 0.000000 0.000000 0.000000 0.000000 0.000000 0.000000 0.000000 0.000000 0.000000 0.000000 0.000000 0.000000 0.000000 0.000000 0.000000 0.000000 0.000000 0.000000 0.000000 0.000000 0.000000 0.000000 0.371391 0.371391 0.417029 0.417029 0.417029 0.417029 0.417029 0.417029 0.417029 0.417029 0.458831 0.458831 0.458831 0.458831 0.458831 0.458831 0.436436 0.436436 0.436436 0.436436 0.436436 0.436436 0.458831 0.458831 0.458831 0.458831 0.436436 0.436436 0.436436 0.436436 0.436436 0.458831 0.458831 0.458831 0.458831 0.458831 0.458831 0.458831 0.458831 0.458831 0.458831 0.458831 0.436436 0.436436 0.436436 0.436436 0.458831 0.458831 0.458831 0.458831 0.458831 0.458831 0.458831 0.458831 0.458831 0.436436 0.436436 0.436436 0.436436 0.436436 0.436436 0.458831 0.458831 0.417029 0.417029 0.417029 0.458831 0.458831 0.400000 0.400000 0.400000 0.458831 0.458831 0.458831 0.458831 0.384900 0.384900 0.384900 0.436436 0.436436 0.436436 0.436436 0.436436 0.436436 0.417029 0.417029 0.359211 0.359211 0.359211 0.417029 0.417029 0.400000 0.400000 0.458831 0.400000 0.400000 0.400000 0.400000 0.384900 0.384900 0.384900 0.384900 0.384900 0.384900 0.371391 0.371391 0.458831 0.371391 0.371391 0.359211 0.359211 0.359211 0.359211 0.436436 0.359211 0.359211 0.436436 0.348155 0.348155 0.348155 0.348155 0.417029 0.338062 0.338062 0.417029 0.328798 0.328798 0.400000 0.328798 0.328798 0.400000 0.320256 0.320256 0.384900 0.320256 0.320256 0.384900 0.312348 0.312348 0.384900 0.304997 0.304997 0.371391 0.371391 0.304997 0.304997 0.371391 0.359211 0.298142 0.298142 0.359211 0.359211 0.291730 0.291730 0.348155 0.348155 0.285714 0.285714 0.348155 0.348155 0.338062 0.280056 0.280056 0.338062 0.338062 0.338062 0.328798 0.269680 0.269680 0.328798 0.328798 0.328798 0.320256 0.264906 0.264906 0.320256 0.320256 0.320256 0.312348 0.312348 0.312348 0.256074 0.256074 0.312348 0.304997 0.304997 0.304997 0.304997 0.304997 0.298142 0.298142 0.298142 0.244339 0.244339 0.298142 0.291730 0.291730 0.291730 0.291730 0.291730 0.285714 0.285714 0.285714 0.285714 0.285714 0.280056 0.280056 0.280056 0.280056 0.280056 0.274721 0.274721 0.274721 0.274721 0.274721 0.269680 0.269680 0.269680 0.269680 0.269680 0.264906 0.264906 0.264906 0.264906 0.260378 0.260378 0.260378 0.260378 0.260378 0.256074 0.256074 0.256074 0.256074 0.256074 0.251976 0.251976 0.251976 0.251976 0.248069 0.248069 0.248069 0.248069 0.248069 0.244339 0.244339 0.244339 0.244339 0.240772 0.240772 0.240772 0.240772 0.237356 0.237356 0.237356 0.237356 0.234082 0.234082 0.234082 0.234082 0.234082 0.230940 0.230940 0.230940 0.230940 0.227921 0.227921 0.227921 0.227921 0.225018 0.225018 0.225018 0.225018 0.222222 0.222222 0.222222 0.222222 0.219529 0.219529 0.219529 0.219529 0.216930 0.216930 0.216930 0.216930 0.214423 0.214423 0.214423 0.212000 0.212000 0.212000 0.212000 0.209657 0.209657 0.209657 0.209657 0.207390 0.207390 0.207390 0.207390 0.205196 0.205196 0.205196 0.203069 0.203069 0.203069 0.203069 0.201008 0.201008 0.201008 0.199007 0.199007 0.199007 0.199007 0.197066 0.197066 0.197066 0.195180 0.195180 0.195180 0.195180 0.193347 0.193347 0.193347 0.191565 0.191565 0.191565 0.191565 0.189832 0.189832 0.189832 0.188144 0.188144 0.188144 0.188144 0.186501 0.186501 0.186501 0.184900 0.184900
