# Output from CTFFind version 4.1.14, run on 2024-08-30 16:05:31
# Input file: CtfFind/job005/Movies/20170629_00026_frameImage_PS.mrc ; Number of micrographs: 1
# Pixel size: 1.400 Angstroms ; acceleration voltage: 200.0 keV ; spherical aberration: 1.40 mm ; amplitude contrast: 0.10
# Box size: 512 pixels ; min. res.: 30.0 Angstroms ; max. res.: 5.0 Angstroms ; min. def.: 5000.0 um; max. def. 50000.0 um; num. frames averaged: 1
# 6 lines per micrograph: #1 - spatial frequency (1/Angstroms); #2 - 1D rotational average of spectrum (assuming no astigmatism); #3 - 1D rotational average of spectrum; #4 - CTF fit; #5 - cross-correlation between spectrum and CTF fit; #6 - 2sigma of expected cross correlation of noise
0.000000 0.001396 0.002791 0.004187 0.005582 0.006978 0.008373 0.009769 0.011164 0.012560 0.013955 0.015351 0.016746 0.018142 0.019538 0.020933 0.022329 0.023724 0.025120 0.026515 0.027911 0.029306 0.030702 0.032097 0.033493 0.034888 0.036284 0.037680 0.039075 0.040471 0.041866 0.043262 0.044657 0.046053 0.047448 0.048844 0.050239 0.051635 0.053030 0.054426 0.055822 0.057217 0.058613 0.060008 0.061404 0.062799 0.064195 0.065590 0.066986 0.068381 0.069777 0.071172 0.072568 0.073964 0.075359 0.076755 0.078150 0.079546 0.080941 0.082337 0.083732 0.085128 0.086523 0.087919 0.089314 0.090710 0.092106 0.093501 0.094897 0.096292 0.097688 0.099083 0.100479 0.101874 0.103270 0.104665 0.106061 0.107456 0.108852 0.110247 0.111643 0.113039 0.114434 0.115830 0.117225 0.118621 0.120016 0.121412 0.122807 0.124203 0.125598 0.126994 0.128389 0.129785 0.131181 0.132576 0.133972 0.135367 0.136763 0.138158 0.139554 0.140949 0.142345 0.143740 0.145136 0.146531 0.147927 0.149323 0.150718 0.152114 0.153509 0.154905 0.156300 0.157696 0.159091 0.160487 0.161882 0.163278 0.164673 0.166069 0.167465 0.168860 0.170256 0.171651 0.173047 0.174442 0.175838 0.177233 0.178629 0.180024 0.181420 0.182815 0.184211 0.185607 0.187002 0.188398 0.189793 0.191189 0.192584 0.193980 0.195375 0.196771 0.198166 0.199562 0.200957 0.202353 0.203749 0.205144 0.206540 0.207935 0.209331 0.210726 0.212122 0.213517 0.214913 0.216308 0.217704 0.219099 0.220495 0.221891 0.223286 0.224682 0.226077 0.227473 0.228868 0.230264 0.231659 0.233055 0.234450 0.235846 0.237241 0.238637 0.240033 0.241428 0.242824 0.244219 0.245615 0.247010 0.248406 0.249801 0.251197 0.252592 0.253988 0.255383 0.256779 0.258175 0.259570 0.260966 0.262361 0.263757 0.265152 0.266548 0.267943 0.269339 0.270734 0.272130 0.273525 0.274921 0.276317 0.277712 0.279108 0.280503 0.281899 0.283294 0.284690 0.286085 0.287481 0.288876 0.290272 0.291667 0.293063 0.294458 0.295854 0.297250 0.298645 0.300041 0.301436 0.302832 0.304227 0.305623 0.307018 0.308414 0.309809 0.311205 0.312600 0.313996 0.315392 0.316787 0.318183 0.319578 0.320974 0.322369 0.323765 0.325160 0.326556 0.327951 0.329347 0.330742 0.332138 0.333534 0.334929 0.336325 0.337720 0.339116 0.340511 0.341907 0.343302 0.344698 0.346093 0.347489 0.348884 0.350280 0.351676 0.353071 0.354467 0.355862 0.357258 0.358653 0.360049 0.361444 0.362840 0.364235 0.365631 0.367026 0.368422 0.369818 0.371213 0.372609 0.374004 0.375400 0.376795 0.378191 0.379586 0.380982 0.382377 0.383773 0.385168 0.386564 0.387960 0.389355 0.390751 0.392146 0.393542 0.394937 0.396333 0.397728 0.399124 0.400519 0.401915 0.403310 0.404706 0.406102 0.407497 0.408893 0.410288 0.411684 0.413079 0.414475 0.415870 0.417266 0.418661 0.420057 0.421452 0.422848 0.424244 0.425639 0.427035 0.428430 0.429826 0.431221 0.432617 0.434012 0.435408 0.436803 0.438199 0.439594 0.440990 0.442386 0.443781 0.445177 0.446572 0.447968 0.449363 0.450759 0.452154 0.453550 0.454945 0.456341 0.457736 0.459132 0.460528 0.461923 0.463319 0.464714 0.466110 0.467505 0.468901 0.470296 0.471692 0.473087 0.474483 0.475878 0.477274 0.478669 0.480065 0.481461 0.482856 0.484252 0.485647 0.487043 0.488438 0.489834 0.491229 0.492625 0.494020 0.495416 0.496811 0.498207 0.499603 0.500998 0.502394 0.503789 0.505185
      -0.12675       -0.09024       -0.05971       -0.04881       -0.04422       -0.04026       -0.03880       -0.03708       -0.03592       -0.03518       -0.03432       -0.03397       -0.03330       -0.03295       -0.03265       -0.03230       -0.03212       -0.03178       -0.03165       -0.03145       -0.03128       -0.03114       -0.03098       -0.03694       -0.58343       -0.11706        0.52619        0.95946        0.63426       -0.02816       -0.93465       -1.09158       -0.48012        0.30814        0.62666        0.27444       -0.39611       -0.63396       -0.31347        0.14539        0.24367       -0.32244       -0.65941       -0.42187        0.15410        0.11932       -0.42082       -0.57315        0.07481        0.36542       -0.12132       -0.45947        0.04897        0.20569       -0.22445       -0.36815        0.16471        0.10371       -0.25722       -0.00294        0.26829       -0.10799       -0.19895        0.23930        0.03063       -0.27492        0.19825       -0.05090       -0.32947        0.03048       -0.16226       -0.24349        0.06123       -0.15256       -0.03705        0.03854       -0.16030        0.04756       -0.08621       -0.14906       -0.00930       -0.08484        0.01131        0.01907       -0.01378        0.02323       -0.04816       -0.01951       -0.06921       -0.04307        0.02496        0.00072       -0.02510       -0.01929       -0.04152        0.02198        0.00160       -0.03458       -0.00828        0.01521       -0.00062        0.01186       -0.09462        0.01629        0.03420        0.04525        0.04156       -0.00931       -0.02590       -0.07509       -0.04471       -0.07102       -0.02210       -0.06817       -0.01672        0.03303        0.03082       -0.02110       -0.06167       -0.04497       -0.02237       -0.00681       -0.04598       -0.03896        0.00080        0.00947       -0.03818       -0.02324       -0.02806       -0.06427       -0.04092       -0.05169       -0.07961       -0.04431       -0.04481       -0.04395       -0.03604       -0.00931       -0.00674        0.00494       -0.04368       -0.03595       -0.01471        0.03825       -0.05375       -0.08026        0.00580       -0.02595        0.00480       -0.09954       -0.08315       -0.01764       -0.01472       -0.04258       -0.05611       -0.07788       -0.03316        0.01629       -0.01134        0.04550       -0.00339       -0.01473       -0.01165       -0.04275       -0.01513       -0.02972       -0.09015       -0.06429       -0.03482       -0.05808       -0.05452       -0.09681       -0.03219       -0.00438       -0.01629       -0.07570        0.00167       -0.03961        0.00522       -0.01668       -0.03398       -0.03119       -0.01303       -0.04951       -0.04197       -0.02798       -0.06787       -0.04581       -0.01493       -0.04786       -0.01372       -0.06524        0.00132       -0.01274       -0.05306       -0.01919       -0.05322       -0.02510        0.03453       -0.03744       -0.04918       -0.06011       -0.01198        0.02714       -0.00049        0.00648       -0.01824       -0.01047       -0.03455        0.01352       -0.00823       -0.03272       -0.01618       -0.03111       -0.04677       -0.04105       -0.00569       -0.04963       -0.00757       -0.05423       -0.03135       -0.05788       -0.05905       -0.04010       -0.00092       -0.04098       -0.06964       -0.05358       -0.02209       -0.02451        0.00091       -0.00787       -0.01543       -0.06359       -0.03910       -0.06717       -0.02618       -0.02008       -0.03083       -0.02343       -0.02587       -0.05394       -0.01292       -0.06039       -0.03066       -0.05201       -0.04181        0.01591       -0.01311       -0.06230       -0.00716        0.01176       -0.04039       -0.04899       -0.02575        0.00496       -0.01775       -0.03448       -0.06974        0.01789        0.00394       -0.04868       -0.01618       -0.01977        0.01461        0.02388       -0.03380       -0.01572       -0.03377       -0.03410       -0.09034       -0.06252       -0.06269       -0.02255       -0.09054       -0.07387       -0.01730       -0.02936       -0.01779       -0.03978       -0.01732        0.01075       -0.01476       -0.02035        0.00466       -0.01030       -0.00323        0.02758       -0.03299       -0.01180       -0.08391       -0.05421       -0.09094       -0.05243       -0.07077       -0.01710        0.00281       -0.10485       -0.03550       -0.01441       -0.04203       -0.03508       -0.03386       -0.02577       -0.04507       -0.04580       -0.03296       -0.05781       -0.04959       -0.02311        0.00446       -0.00509       -0.03377        0.00114       -0.01545        0.01051       -0.06476        0.04288       -0.02912       -0.01365       -0.10432       -0.10825       -0.00800        0.00107       -0.00544        0.05546        0.04557        0.02436       -0.07600        0.01795       -0.03181       -0.10570       -0.02624       -0.09955       -0.04046       -0.03316        0.00786        0.07103       -0.08638       -0.03179       -0.08061       -0.04691       -0.06796       -0.02564       -0.08540       -0.03314        0.08616        0.03477       -0.06550       -0.02789        0.04608        0.06164       -0.16319       -0.14320        0.09424       -0.10045       -0.05573       -0.04753        0.11959        0.01221       -0.13517        0.31443        1.53501
-0.126747 -0.042750 -0.042535 -0.042177 -0.041676 -0.041031 -0.040243 -0.039312 -0.038237 -0.037020 -0.035658 -0.034849 -0.034321 -0.033748 -0.033128 -0.032463 -0.032206 -0.031962 -0.031703 -0.033003 -0.037044 -0.041292 -0.071271 -0.143060 -0.218038 0.042459 0.415031 0.549216 0.318029 0.012411 -0.515616 -0.836928 -0.377915 0.035611 0.338797 0.215808 -0.283294 -0.399695 -0.346839 0.060414 0.046849 -0.204771 -0.529917 -0.351846 -0.041620 0.112326 -0.336650 -0.379983 -0.079443 0.299426 -0.083587 -0.354057 -0.011121 0.141841 -0.161709 -0.345342 0.053044 0.185420 -0.234044 -0.118655 0.312109 -0.008951 -0.316197 0.227902 0.188421 -0.328229 0.120868 0.046682 -0.411587 0.149586 -0.160060 -0.497693 0.191522 -0.200059 -0.066708 0.250183 -0.338159 0.092313 -0.066684 -0.299087 0.105302 -0.214511 0.104369 -0.001645 0.024386 0.010794 -0.068717 0.057308 -0.081671 -0.041618 -0.011949 0.054751 -0.025934 -0.058550 -0.022254 -0.018672 0.089886 -0.037429 -0.041693 0.023410 0.001511 0.003874 -0.042241 -0.073433 0.080501 0.013709 0.056326 0.037235 -0.029681 -0.044799 -0.048899 -0.095936 -0.036790 -0.014416 -0.093754 0.049263 0.012644 -0.043981 0.013650 -0.077870 0.032460 -0.083791 -0.019018 -0.026702 0.058451 0.006589 -0.060800 -0.007982 -0.070472 -0.038489 -0.046456 -0.049401 -0.091422 -0.080789 -0.041646 -0.017654 -0.027574 -0.067330 0.019811 -0.008915 -0.017957 -0.052674 0.011021 0.001268 0.034949 -0.089537 0.017720 -0.030994 -0.004449 -0.058499 -0.050001 -0.073729 -0.051183 -0.000805 -0.039578 -0.049033 -0.094592 -0.006299 0.030014 -0.010541 -0.009718 0.056942 -0.066644 -0.035469 -0.005946 0.023117 -0.087998 -0.091876 -0.073345 -0.046514 0.006829 -0.079126 0.024247 0.027265 0.029535 0.058186 -0.033855 -0.041462 -0.032839 0.021083 -0.077252 0.000228 -0.062892 -0.042454 0.021577 -0.060672 -0.049252 -0.054317 -0.061836 -0.029123 -0.084179 0.014679 -0.048817 -0.033224 -0.027153 -0.080690 -0.021969 0.038887 -0.040146 -0.062457 -0.083717 -0.049326 0.094506 0.012167 0.075775 -0.004697 0.045555 -0.022850 -0.005411 -0.012290 -0.001001 -0.002381 -0.028138 0.009330 0.037582 -0.079656 0.037463 -0.043015 -0.005387 -0.050499 0.016788 -0.115305 -0.028461 0.004857 -0.093294 -0.042204 -0.030545 0.010071 -0.055022 0.016303 0.005884 -0.070895 0.000609 -0.027030 -0.098581 -0.064332 -0.027877 -0.038172 0.008566 -0.109365 -0.113911 -0.055437 0.091676 -0.033047 -0.035769 -0.051752 0.028724 -0.101502 0.006288 -0.007932 -0.022937 -0.021049 -0.008907 -0.017729 -0.073799 -0.011791 -0.051125 -0.035778 -0.045840 -0.060668 -0.042865 -0.088173 0.029359 -0.021129 0.004980 -0.096744 0.030962 -0.056005 0.047811 -0.000576 -0.000249 -0.168316 0.010788 -0.055724 -0.034694 -0.069093 -0.053539 -0.059144 -0.040709 -0.022080 -0.026231 -0.096806 -0.114120 0.094652 -0.049910 -0.067137 0.051391 -0.009263 -0.043087 0.083883 -0.010958 -0.022297 -0.126281 -0.062873 -0.050859 -0.000172 -0.100208 -0.034718 -0.084801 -0.025438 -0.160943 -0.024050 -0.050587 0.135316 0.084112 0.035163 0.007613 -0.047402 0.026142 -0.007854 -0.013146 0.052791 -0.095130 -0.005862 -0.095429 -0.121931 0.055180 0.047117 -0.126481 0.256415 -0.171522 -0.120923 -0.009531 -0.007398 0.041981 -0.112859 0.160059 0.104846 0.008638 -0.069699 -0.007599 -0.081502 -0.003638 -0.166933 -0.122858 0.030247 0.084089 -0.148487 0.131805 0.165991 -0.191404 0.123871 -0.329414 0.204569 0.044839 0.079584 -0.089731 -0.132980 0.303349 -0.158551 -0.183697 0.235166 0.022018 -0.413905 0.336317 0.081073 0.050011 -0.500573 -0.189681 0.141520 0.143828 0.123917 0.000000
0.100000 0.107487 0.129909 0.167126 0.218820 0.284371 0.362688 0.451999 0.549623 0.651739 0.753185 0.847342 0.926153 0.980355 0.999989 0.975247 0.897693 0.761825 0.566866 0.318567 0.030684 0.274325 0.565890 0.807666 0.961909 0.995783 0.888983 0.641358 0.278633 0.146043 0.556815 0.867208 0.998888 0.903929 0.584880 0.105363 0.415642 0.829320 0.999590 0.852171 0.413034 0.182554 0.722894 0.992397 0.862273 0.361867 0.309079 0.848817 0.987625 0.631712 0.060776 0.731418 0.999707 0.686730 0.047625 0.762569 0.991417 0.556389 0.271173 0.914496 0.887863 0.182015 0.675473 0.993907 0.484436 0.447440 0.992532 0.639228 0.315597 0.975865 0.679008 0.308016 0.983266 0.616686 0.425853 0.999934 0.433087 0.645302 0.956827 0.096480 0.890109 0.741193 0.379508 0.998346 0.256357 0.846672 0.749959 0.435715 0.981280 0.048274 0.962299 0.468594 0.774406 0.762658 0.510622 0.927418 0.243230 0.992450 0.015120 0.996974 0.155208 0.976122 0.264035 0.955173 0.313637 0.948416 0.306287 0.959631 0.241643 0.982357 0.117064 0.999499 0.068794 0.983080 0.309298 0.896260 0.580593 0.700847 0.832620 0.373271 0.986703 0.070771 0.949311 0.550952 0.650877 0.914971 0.106970 0.976804 0.525740 0.616761 0.956147 0.084827 0.886134 0.779328 0.248097 0.981896 0.602478 0.438020 0.999482 0.507675 0.499683 0.999978 0.523652 0.444288 0.993551 0.646048 0.261838 0.938251 0.833916 0.062946 0.748301 0.985842 0.499690 0.334567 0.928691 0.898217 0.291086 0.488473 0.963921 0.874265 0.297630 0.430324 0.923549 0.947905 0.517090 0.144513 0.730395 0.995710 0.851496 0.379083 0.224684 0.736191 0.987682 0.915308 0.564018 0.056742 0.453918 0.832987 0.996171 0.922340 0.647605 0.246717 0.190133 0.578884 0.856746 0.989526 0.971904 0.822138 0.574243 0.269303 0.051792 0.353962 0.611003 0.806623 0.933842 0.993548 0.992318 0.940309 0.849362 0.731431 0.597617 0.457345 0.318288 0.186182 0.064984 0.042858 0.135916 0.213768 0.276470 0.324511 0.358318 0.378368 0.385073 0.378549 0.358627 0.325009 0.277281 0.214843 0.137382 0.044776 0.062477 0.183100 0.314578 0.453063 0.592884 0.726576 0.844856 0.936853 0.990789 0.995018 0.939437 0.817396 0.627663 0.376426 0.079112 0.239390 0.545369 0.799308 0.960728 0.995349 0.883143 0.626143 0.253739 0.176766 0.585942 0.885897 0.999984 0.884736 0.549018 0.062310 0.453383 0.850830 0.999970 0.834891 0.388326 0.202895 0.732196 0.993044 0.864209 0.374934 0.284870 0.828338 0.994329 0.680971 0.019952 0.661756 0.995898 0.777363 0.105285 0.639123 0.997905 0.723511 0.031644 0.774604 0.983184 0.483805 0.381233 0.963823 0.793712 0.020681 0.826109 0.933555 0.223354 0.694420 0.979369 0.340005 0.634426 0.986508 0.337904 0.667435 0.969109 0.216998 0.782063 0.897136 0.030743 0.927777 0.704505 0.392551 0.999509 0.321240 0.782733 0.843010 0.247840 0.998573 0.336915 0.813670 0.772866 0.424030 0.979667 0.020394 0.973852 0.411905 0.821801 0.699397 0.598473 0.877375 0.364074 0.966786 0.156926 0.997529 0.003590 0.997953 0.110818 0.989563 0.163987 0.985321 0.164201 0.989509 0.111406 0.997893 0.004860 0.997654 0.154638 0.967569 0.360429 0.879784 0.593415 0.704948 0.816257 0.422492 0.970576 0.036988 0.983404 0.403242 0.789466 0.795544 0.369734 0.995650 0.203671 0.869392 0.745674 0.381320 0.999190 0.318199 0.764132 0.887233 0.076016 0.942673 0.696009 0.350942 0.995299 0.535857 0.500082
1.000000 1.000000 1.000000 1.000000 1.000000 1.000000 1.000000 1.000000 1.000000 1.000000 1.000000 1.000000 1.000000 1.000000 1.000000 1.000000 1.000000 1.000000 1.000000 1.000000 1.000000 1.000000 1.000000 1.000000 -0.310702 -0.401622 -0.401622 -0.401622 -0.401622 -0.401622 -0.401622 -0.401622 -0.401622 -0.369173 -0.376867 -0.346409 -0.435094 -0.423359 -0.434854 -0.551761 -0.535214 -0.438621 -0.379258 -0.342144 -0.322323 -0.196895 -0.189712 -0.148054 -0.081079 -0.071107 -0.107085 -0.057239 -0.008921 0.060264 0.098247 0.130758 0.167974 0.277794 0.298120 0.351147 0.410141 0.446068 0.483795 0.502625 0.513828 0.577786 0.637483 0.675035 0.645126 0.733582 0.742769 0.762798 0.743645 0.633209 0.556918 0.548384 0.532205 0.504034 0.352091 0.319420 0.205742 0.160432 0.053526 0.118677 0.029262 -0.052512 -0.099747 -0.188083 0.035992 0.069058 0.104992 -0.123457 0.006066 0.104216 0.042680 -0.072043 -0.095128 0.023828 -0.021543 -0.011391 0.046316 0.042006 0.121387 0.137775 0.201434 0.208134 0.189553 0.238854 0.325362 0.322222 0.372768 0.343622 0.154153 0.230955 0.220214 0.232161 0.277764 0.237770 0.275525 0.282592 0.340894 0.452952 0.336890 0.328480 0.398797 0.384299 0.289066 0.369924 0.358405 0.382119 0.362029 0.315274 0.232428 0.220798 0.324108 0.190781 0.184340 0.168433 0.102950 0.092227 0.047383 0.112887 0.103014 -0.046121 0.075315 0.027586 0.155064 0.006565 0.003913 0.034229 0.004302 0.059846 -0.073038 -0.087653 0.120766 0.125990 -0.070880 -0.049251 0.084832 0.076939 -0.072000 0.060443 0.079321 0.081769 0.075358 0.052290 0.069074 0.094797 0.044611 0.245551 0.207732 0.213704 0.135300 0.131724 0.234083 0.174717 0.167319 0.222181 0.151741 0.157165 0.287215 0.292348 0.290642 0.291475 0.293157 0.264974 0.218177 0.325427 0.331178 0.331610 0.331615 0.339937 0.276226 0.280432 0.295230 0.326481 0.318263 0.301298 0.313234 0.314340 0.293018 0.310161 0.314941 0.310052 0.291286 0.358683 0.341262 0.288226 0.290438 0.280331 0.295211 0.303961 0.307141 0.304500 0.359809 0.343132 0.330994 0.330657 0.339950 0.339633 0.283133 0.363577 0.368648 0.382172 0.381705 0.389773 0.378036 0.370701 0.372760 0.366915 0.383371 0.372549 0.374107 0.325871 0.311158 0.306417 0.304950 0.300370 0.340758 0.340057 0.336325 0.360533 0.231518 0.224133 0.210821 0.209172 0.199626 0.191659 0.177464 0.167518 0.154280 0.159615 0.144071 0.141323 0.125850 0.122500 0.113621 0.101973 0.055085 0.046373 0.059605 0.092187 0.061563 0.035794 0.014520 0.019335 0.021549 0.066137 0.039997 0.035652 0.042360 0.038461 0.011741 -0.005405 -0.027341 -0.026445 -0.021612 -0.055718 -0.068922 -0.027656 -0.030258 -0.015029 -0.021602 -0.009488 -0.053574 -0.062510 -0.099992 -0.125231 -0.161238 -0.180231 -0.208837 -0.216940 -0.232822 -0.242159 -0.240838 -0.222341 -0.223134 -0.249888 -0.252305 -0.266367 -0.282508 -0.263788 -0.268487 -0.285101 -0.283204 -0.292506 -0.287953 -0.275710 -0.268518 -0.247393 -0.246576 -0.244939 -0.257014 -0.275209 -0.271053 -0.251938 -0.251938 -0.251938 -0.261522 -0.261522 -0.261522 -0.261522 -0.257254 -0.257254 -0.257254 -0.260266 -0.260266 -0.260266 -0.260266 -0.250188 -0.250188 -0.250188 -0.247424 -0.247424 -0.247424 -0.255321 -0.255321 -0.255321 -0.236443 -0.236443 -0.236443 -0.238247 -0.238247 -0.238247 -0.238247 -0.221777 -0.221777 -0.221777 -0.210240 -0.210240 -0.210240 -0.201856 -0.201856 -0.201856 -0.210281 -0.210281 -0.210281 -0.195540 -0.195540 -0.195540 -0.185846 -0.185846 -0.185846
0.000000 0.000000 0.000000 0.000000 0.000000 0.000000 0.000000 0.000000 0.000000 0.000000 0.000000 0.000000 0.000000 0.000000 0.000000 0.000000 0.000000 0.000000 0.000000 0.000000 0.000000 0.000000 0.000000 0.000000 0.371391 0.417029 0.417029 0.417029 0.417029 0.417029 0.417029 0.417029 0.417029 0.458831 0.458831 0.458831 0.458831 0.458831 0.458831 0.458831 0.458831 0.458831 0.458831 0.458831 0.458831 0.458831 0.458831 0.458831 0.458831 0.458831 0.458831 0.458831 0.458831 0.458831 0.458831 0.458831 0.458831 0.458831 0.458831 0.458831 0.458831 0.458831 0.458831 0.436436 0.436436 0.436436 0.436436 0.458831 0.458831 0.458831 0.458831 0.458831 0.458831 0.458831 0.458831 0.458831 0.458831 0.458831 0.436436 0.436436 0.436436 0.458831 0.458831 0.417029 0.417029 0.417029 0.458831 0.458831 0.400000 0.400000 0.400000 0.458831 0.458831 0.458831 0.458831 0.458831 0.458831 0.384900 0.384900 0.384900 0.436436 0.436436 0.436436 0.436436 0.417029 0.417029 0.417029 0.417029 0.417029 0.417029 0.400000 0.400000 0.458831 0.400000 0.400000 0.400000 0.400000 0.384900 0.384900 0.384900 0.384900 0.458831 0.371391 0.371391 0.371391 0.371391 0.458831 0.359211 0.359211 0.359211 0.359211 0.436436 0.359211 0.359211 0.436436 0.348155 0.348155 0.417029 0.338062 0.338062 0.417029 0.338062 0.338062 0.400000 0.328798 0.328798 0.400000 0.328798 0.328798 0.400000 0.320256 0.320256 0.384900 0.384900 0.312348 0.312348 0.384900 0.371391 0.304997 0.304997 0.371391 0.371391 0.298142 0.298142 0.359211 0.359211 0.359211 0.291730 0.291730 0.359211 0.348155 0.348155 0.285714 0.285714 0.348155 0.348155 0.338062 0.338062 0.274721 0.274721 0.338062 0.338062 0.328798 0.328798 0.328798 0.269680 0.269680 0.328798 0.320256 0.320256 0.320256 0.320256 0.320256 0.312348 0.312348 0.256074 0.256074 0.312348 0.312348 0.304997 0.304997 0.304997 0.304997 0.304997 0.298142 0.298142 0.298142 0.298142 0.298142 0.291730 0.291730 0.291730 0.291730 0.291730 0.285714 0.285714 0.285714 0.285714 0.285714 0.280056 0.280056 0.280056 0.280056 0.280056 0.274721 0.274721 0.274721 0.274721 0.269680 0.269680 0.269680 0.269680 0.269680 0.264906 0.264906 0.264906 0.264906 0.264906 0.260378 0.260378 0.260378 0.260378 0.256074 0.256074 0.256074 0.256074 0.251976 0.251976 0.251976 0.251976 0.251976 0.248069 0.248069 0.248069 0.248069 0.244339 0.244339 0.244339 0.244339 0.240772 0.240772 0.240772 0.240772 0.237356 0.237356 0.237356 0.237356 0.234082 0.234082 0.234082 0.234082 0.230940 0.230940 0.230940 0.230940 0.227921 0.227921 0.227921 0.227921 0.225018 0.225018 0.225018 0.225018 0.222222 0.222222 0.222222 0.219529 0.219529 0.219529 0.219529 0.216930 0.216930 0.216930 0.216930 0.214423 0.214423 0.214423 0.212000 0.212000 0.212000 0.212000 0.209657 0.209657 0.209657 0.209657 0.207390 0.207390 0.207390 0.205196 0.205196 0.205196 0.205196 0.203069 0.203069 0.203069 0.201008 0.201008 0.201008 0.199007 0.199007 0.199007 0.199007 0.197066 0.197066 0.197066 0.195180 0.195180 0.195180 0.195180 0.193347 0.193347 0.193347 0.191565 0.191565 0.191565 0.189832 0.189832 0.189832 0.188144 0.188144 0.188144 0.186501 0.186501 0.186501 0.186501 0.184900 0.184900 0.184900 0.183340 0.183340 0.183340 0.181818 0.181818 0.181818 0.180334 0.180334 0.180334 0.178885 0.178885 0.178885 0.177471 0.177471 0.177471
