# Output from CTFFind version 4.1.14, run on 2024-08-30 16:05:31
# Input file: CtfFind/job005/Movies/20170629_00025_frameImage_PS.mrc ; Number of micrographs: 1
# Pixel size: 1.400 Angstroms ; acceleration voltage: 200.0 keV ; spherical aberration: 1.40 mm ; amplitude contrast: 0.10
# Box size: 512 pixels ; min. res.: 30.0 Angstroms ; max. res.: 5.0 Angstroms ; min. def.: 5000.0 um; max. def. 50000.0 um; num. frames averaged: 1
# 6 lines per micrograph: #1 - spatial frequency (1/Angstroms); #2 - 1D rotational average of spectrum (assuming no astigmatism); #3 - 1D rotational average of spectrum; #4 - CTF fit; #5 - cross-correlation between spectrum and CTF fit; #6 - 2sigma of expected cross correlation of noise
0.000000 0.001396 0.002791 0.004187 0.005582 0.006978 0.008373 0.009769 0.011164 0.012560 0.013955 0.015351 0.016746 0.018142 0.019538 0.020933 0.022329 0.023724 0.025120 0.026515 0.027911 0.029306 0.030702 0.032097 0.033493 0.034888 0.036284 0.037680 0.039075 0.040471 0.041866 0.043262 0.044657 0.046053 0.047448 0.048844 0.050239 0.051635 0.053030 0.054426 0.055822 0.057217 0.058613 0.060008 0.061404 0.062799 0.064195 0.065590 0.066986 0.068381 0.069777 0.071172 0.072568 0.073964 0.075359 0.076755 0.078150 0.079546 0.080941 0.082337 0.083732 0.085128 0.086523 0.087919 0.089314 0.090710 0.092106 0.093501 0.094897 0.096292 0.097688 0.099083 0.100479 0.101874 0.103270 0.104665 0.106061 0.107456 0.108852 0.110247 0.111643 0.113039 0.114434 0.115830 0.117225 0.118621 0.120016 0.121412 0.122807 0.124203 0.125598 0.126994 0.128389 0.129785 0.131181 0.132576 0.133972 0.135367 0.136763 0.138158 0.139554 0.140949 0.142345 0.143740 0.145136 0.146531 0.147927 0.149323 0.150718 0.152114 0.153509 0.154905 0.156300 0.157696 0.159091 0.160487 0.161882 0.163278 0.164673 0.166069 0.167465 0.168860 0.170256 0.171651 0.173047 0.174442 0.175838 0.177233 0.178629 0.180024 0.181420 0.182815 0.184211 0.185607 0.187002 0.188398 0.189793 0.191189 0.192584 0.193980 0.195375 0.196771 0.198166 0.199562 0.200957 0.202353 0.203749 0.205144 0.206540 0.207935 0.209331 0.210726 0.212122 0.213517 0.214913 0.216308 0.217704 0.219099 0.220495 0.221891 0.223286 0.224682 0.226077 0.227473 0.228868 0.230264 0.231659 0.233055 0.234450 0.235846 0.237241 0.238637 0.240033 0.241428 0.242824 0.244219 0.245615 0.247010 0.248406 0.249801 0.251197 0.252592 0.253988 0.255383 0.256779 0.258175 0.259570 0.260966 0.262361 0.263757 0.265152 0.266548 0.267943 0.269339 0.270734 0.272130 0.273525 0.274921 0.276317 0.277712 0.279108 0.280503 0.281899 0.283294 0.284690 0.286085 0.287481 0.288876 0.290272 0.291667 0.293063 0.294458 0.295854 0.297250 0.298645 0.300041 0.301436 0.302832 0.304227 0.305623 0.307018 0.308414 0.309809 0.311205 0.312600 0.313996 0.315392 0.316787 0.318183 0.319578 0.320974 0.322369 0.323765 0.325160 0.326556 0.327951 0.329347 0.330742 0.332138 0.333534 0.334929 0.336325 0.337720 0.339116 0.340511 0.341907 0.343302 0.344698 0.346093 0.347489 0.348884 0.350280 0.351676 0.353071 0.354467 0.355862 0.357258 0.358653 0.360049 0.361444 0.362840 0.364235 0.365631 0.367026 0.368422 0.369818 0.371213 0.372609 0.374004 0.375400 0.376795 0.378191 0.379586 0.380982 0.382377 0.383773 0.385168 0.386564 0.387960 0.389355 0.390751 0.392146 0.393542 0.394937 0.396333 0.397728 0.399124 0.400519 0.401915 0.403310 0.404706 0.406102 0.407497 0.408893 0.410288 0.411684 0.413079 0.414475 0.415870 0.417266 0.418661 0.420057 0.421452 0.422848 0.424244 0.425639 0.427035 0.428430 0.429826 0.431221 0.432617 0.434012 0.435408 0.436803 0.438199 0.439594 0.440990 0.442386 0.443781 0.445177 0.446572 0.447968 0.449363 0.450759 0.452154 0.453550 0.454945 0.456341 0.457736 0.459132 0.460528 0.461923 0.463319 0.464714 0.466110 0.467505 0.468901 0.470296 0.471692 0.473087 0.474483 0.475878 0.477274 0.478669 0.480065 0.481461 0.482856 0.484252 0.485647 0.487043 0.488438 0.489834 0.491229 0.492625 0.494020 0.495416 0.496811 0.498207 0.499603 0.500998 0.502394 0.503789 0.505185
      -0.17428       -0.09932       -0.03665       -0.01428       -0.00484        0.00329        0.00629        0.00981        0.01219        0.01372        0.01549        0.01621        0.01757        0.01830        0.01890        0.01962        0.02000        0.02070        0.02096        0.02138        0.02171        0.02201        0.02234        0.01930       -0.39673       -1.02533       -1.30086       -0.97710       -0.48259        0.40786        0.88009        0.89467        0.44112       -0.25944       -0.74081       -0.87430       -0.48435       -0.02587        0.56935        0.45261       -0.13569       -0.60245       -0.72320       -0.35672        0.14961        0.41456        0.12846       -0.29196       -0.33626       -0.10937        0.32223        0.33540       -0.01396       -0.20558       -0.08858        0.33679        0.43158       -0.08379       -0.18930        0.10897        0.30933        0.00280       -0.25051       -0.05580        0.23665        0.05433       -0.27164       -0.12510        0.20478       -0.04655       -0.19649       -0.03071        0.15239       -0.04815       -0.16138        0.15433        0.04466       -0.20390        0.00559        0.13144       -0.13236       -0.09123        0.11449       -0.10975       -0.09740        0.08914       -0.07495       -0.01451        0.23028        0.00589        0.02092        0.12734       -0.04109        0.01977        0.16756        0.00493        0.14726        0.05294       -0.13272        0.05714        0.02656        0.04093        0.08604        0.07295        0.10130        0.00088        0.01291        0.05599        0.03225        0.02713        0.04723        0.01445        0.07318        0.02244       -0.05369        0.07281       -0.00353       -0.00686       -0.03293        0.05579        0.01411        0.06468        0.06629        0.04622       -0.02015       -0.00684        0.08541        0.14670        0.04241        0.05180        0.06787        0.00018       -0.00601       -0.00244        0.01864       -0.05193       -0.02208        0.00885        0.00424        0.00332        0.01504        0.04162        0.00558        0.03780        0.06430        0.06618        0.01200        0.03079        0.04028        0.03780        0.01881        0.01749        0.05551        0.07164        0.00860        0.08922        0.04650        0.04704        0.00079        0.02415        0.04089        0.04434       -0.00899        0.05753       -0.00068        0.02895        0.06529       -0.01166       -0.03772       -0.01659        0.03189       -0.02884        0.02780       -0.00221       -0.00025        0.05235        0.07449        0.04365       -0.00036        0.00909        0.02752        0.04988        0.00524        0.09321        0.08071        0.04271        0.01346        0.01981       -0.01620        0.06823        0.06449       -0.03391        0.00870        0.06205        0.04034        0.01433        0.04428        0.02957        0.03298        0.01670        0.05354        0.06353        0.00909        0.02634        0.02812        0.05528        0.00088       -0.00223       -0.01576        0.07360        0.06935        0.03292        0.01787       -0.00030        0.04218       -0.00408        0.00352        0.03210        0.02617        0.05396       -0.02224       -0.00376        0.01143       -0.03964       -0.02567        0.01547        0.04354       -0.01537        0.00780        0.06232        0.03970        0.00892        0.05595        0.05982        0.06981       -0.00195        0.05198        0.01832        0.02662        0.06690        0.01632        0.02650        0.03868       -0.01960       -0.02795        0.03974        0.05574        0.09200        0.06041        0.05013        0.06709        0.07594        0.05104       -0.05268       -0.00457        0.01535        0.03192        0.01033        0.02431        0.02083        0.00433       -0.03351        0.00957        0.05881        0.02382        0.03509       -0.00936       -0.00524        0.02307        0.07021        0.03912        0.00082        0.08962        0.06055        0.03850        0.04353        0.13633        0.01039        0.01507        0.07192        0.01054        0.02199        0.03164       -0.01048        0.03215        0.04719        0.00423       -0.02277        0.06466        0.00885       -0.04361       -0.04443        0.05033        0.12771        0.01457       -0.00367        0.00739        0.04421       -0.00034        0.04154       -0.00029       -0.04722       -0.02938        0.03094        0.05806        0.08477        0.09018        0.06532        0.02571        0.12788        0.14654        0.08850        0.08846        0.03744        0.02413        0.03486       -0.01706       -0.03155        0.02382        0.01254       -0.03720       -0.04245        0.04159        0.02266       -0.04704       -0.10488       -0.00529       -0.03270       -0.01668        0.00665        0.14442        0.02601       -0.03936        0.00667        0.16261        0.04896        0.03897        0.04916        0.01109       -0.08969        0.08720       -0.03932        0.13845        0.02571        0.01446        0.01266        0.25027        0.12422        0.02050        0.13877        0.01809        0.20192        0.05753       -0.14457        0.02541        0.02269       -0.06176       -0.29955        0.01372       -0.13617       -0.66326       -0.19518        0.38522
-0.174278 -0.001974 -0.001523 -0.000770 0.000283 0.001637 0.003293 0.005249 0.007506 0.010064 0.012923 0.014144 0.015334 0.016627 0.018023 0.019336 0.019822 0.020340 0.020889 0.021201 0.021353 0.021512 -0.083285 -0.256301 -0.438430 -0.713504 -0.999799 -0.801532 -0.338559 0.127972 0.597467 0.681774 0.351081 -0.093232 -0.618161 -0.648482 -0.517582 -0.028035 0.287507 0.437322 -0.069727 -0.464460 -0.686080 -0.348806 0.056685 0.313385 0.145855 -0.211707 -0.290035 -0.099949 0.209794 0.336168 0.015286 -0.182481 -0.056249 0.277278 0.349703 0.033133 -0.160606 0.042883 0.245671 0.081253 -0.197595 -0.093143 0.195307 0.080484 -0.253326 -0.177662 0.192541 0.033781 -0.220081 -0.051628 0.187219 0.016990 -0.222102 0.130576 0.100494 -0.210067 -0.051819 0.178154 -0.114477 -0.152936 0.174162 -0.075372 -0.150564 0.150203 -0.031325 -0.170510 0.277095 0.052138 -0.103681 0.321793 -0.070928 -0.043703 0.187941 -0.024249 0.137239 0.144851 -0.228425 0.075971 0.035055 -0.049809 0.119198 0.057496 0.117724 -0.007095 -0.020936 0.042092 0.069364 -0.003695 0.072728 -0.042670 0.124445 0.031864 -0.036793 0.016131 0.041659 -0.002104 -0.047236 0.088197 0.006452 0.031384 0.088931 0.057020 -0.006967 -0.043135 0.077731 0.147040 -0.007136 0.072311 0.092977 0.049676 -0.054273 0.020733 0.061969 -0.062630 -0.018643 0.056063 -0.008688 -0.010107 0.033219 -0.036362 0.005360 0.085538 0.020745 0.098678 0.055336 -0.002727 0.067328 0.007401 0.033078 0.025547 0.040762 0.029361 0.067179 0.049568 0.095039 0.002227 0.029874 -0.023811 0.002331 0.052213 0.022596 -0.040048 0.042561 0.048241 0.044362 0.000997 0.024330 -0.037234 -0.002371 0.027755 -0.009911 0.044936 -0.044807 0.009271 0.044621 0.098760 -0.056365 0.066757 0.063124 0.010646 -0.021568 0.086779 0.055164 0.075485 0.052169 0.126289 0.058595 0.066199 0.063626 0.063138 0.016840 0.071580 0.021037 0.036786 0.089194 0.010530 0.051303 0.061067 0.026871 0.077127 0.047967 0.050360 -0.035857 0.099859 -0.007012 -0.076767 -0.100611 0.100369 0.090195 0.064470 0.044529 0.016731 0.002873 0.010032 0.011407 0.007665 -0.014378 0.039801 0.025358 0.057403 -0.025642 0.002078 -0.112704 -0.002450 -0.005378 0.009387 0.047549 0.076421 0.038851 0.069146 -0.005266 0.096425 0.021557 0.056407 -0.016552 -0.029615 0.112281 0.084897 -0.015895 0.052097 0.075828 0.069027 0.012372 -0.001455 0.007312 0.088524 0.111706 0.062407 0.037375 0.067215 -0.001353 0.012000 -0.000962 0.039851 -0.025771 0.058532 -0.047989 -0.040237 0.018373 -0.022627 0.032131 0.070792 0.024078 0.120949 -0.017644 0.011289 0.032189 0.088599 0.045164 -0.029154 0.029004 0.051870 0.065896 0.091848 0.105620 0.174029 0.007989 0.034240 0.044202 -0.097585 0.001634 -0.007482 0.058032 -0.007263 0.094201 -0.076280 0.101280 -0.147561 -0.021925 -0.124096 -0.037203 0.052509 0.175191 0.122653 -0.032819 0.010835 -0.009809 -0.001122 0.115661 -0.138486 0.096839 -0.033494 -0.033584 0.161155 0.056987 0.011436 -0.002553 0.015033 0.185818 0.205238 0.121981 0.170040 0.105159 0.016454 -0.039453 -0.027755 0.102939 0.022782 0.200605 0.022329 0.226277 -0.142807 0.020581 0.059985 -0.105895 0.095792 0.003928 0.094062 0.056029 0.025902 -0.106210 -0.187160 0.033274 0.247418 0.282465 0.295056 -0.080290 -0.098053 -0.048454 0.136478 -0.081978 0.008667 -0.556530 0.308490 0.065645 0.152308 0.358100 0.244362 -0.153398 0.439176 -0.009438 0.111415 -0.594944 0.071135 0.004641 -0.379952 0.192968 0.088226 -0.412847 -0.395990 -0.625555
0.100000 0.105836 0.123321 0.152375 0.192825 0.244344 0.306373 0.378014 0.457920 0.544163 0.634113 0.724331 0.810496 0.887395 0.949004 0.988680 0.999512 0.974829 0.908898 0.797768 0.640238 0.438837 0.200700 0.061846 0.331195 0.585080 0.798086 0.944138 0.999912 0.948904 0.785635 0.519256 0.175603 0.203234 0.562624 0.842640 0.988424 0.962224 0.754771 0.392953 0.059298 0.509166 0.852530 0.998664 0.896802 0.557010 0.057342 0.468626 0.864696 0.999107 0.812449 0.348944 0.244637 0.759424 0.996689 0.848707 0.355256 0.294413 0.826328 0.996205 0.707935 0.077740 0.599284 0.980836 0.853734 0.264490 0.478929 0.957501 0.878612 0.267548 0.516629 0.979572 0.805312 0.087368 0.698207 0.997255 0.575340 0.278552 0.928084 0.859235 0.103361 0.743512 0.975680 0.375270 0.558066 0.999954 0.532200 0.435329 0.995282 0.591682 0.401626 0.995057 0.565150 0.462338 0.999996 0.447240 0.607056 0.978203 0.220587 0.800648 0.867847 0.122783 0.965825 0.593899 0.541951 0.975420 0.116582 0.902913 0.689074 0.484878 0.977314 0.067805 0.943558 0.561148 0.665649 0.880808 0.266377 0.998345 0.142531 0.945370 0.487836 0.780305 0.738042 0.562660 0.893343 0.339159 0.971937 0.139936 0.998498 0.019315 0.996643 0.132737 0.985100 0.199746 0.976355 0.221389 0.976516 0.198286 0.985478 0.129843 0.996930 0.015096 0.998225 0.145186 0.970572 0.344899 0.890452 0.568085 0.733531 0.784450 0.482135 0.947387 0.136760 0.998027 0.270787 0.879042 0.667642 0.559943 0.943578 0.069335 0.978018 0.480189 0.694564 0.898541 0.129258 0.978766 0.525935 0.611776 0.958719 0.092776 0.884459 0.776615 0.263320 0.987243 0.562602 0.500689 0.997936 0.395950 0.629636 0.982521 0.312516 0.671825 0.978207 0.323629 0.637530 0.991542 0.427892 0.518522 0.998771 0.609528 0.293874 0.946064 0.824487 0.048996 0.757924 0.982511 0.476470 0.370088 0.946981 0.864622 0.200658 0.588535 0.992642 0.772696 0.084980 0.645632 0.995669 0.782764 0.144855 0.562425 0.970898 0.887568 0.373198 0.310819 0.843398 0.994034 0.714559 0.141020 0.481174 0.906332 0.982876 0.699652 0.174384 0.401693 0.836620 0.999916 0.856235 0.464459 0.050911 0.543017 0.884860 0.999862 0.874197 0.551612 0.115419 0.335417 0.709584 0.940784 0.996855 0.880620 0.623861 0.277300 0.100704 0.454551 0.739360 0.925213 0.998721 0.961802 0.828475 0.621027 0.365778 0.089506 0.183399 0.433012 0.644583 0.808961 0.922139 0.984427 0.999451 0.973154 0.912801 0.826187 0.720948 0.604114 0.481897 0.359409 0.240684 0.128769 0.025770 0.066941 0.148553 0.218904 0.277976 0.326051 0.363480 0.390633 0.407832 0.415333 0.413298 0.401612 0.380116 0.348650 0.306840 0.254290 0.190653 0.115904 0.029970 0.066573 0.172785 0.287003 0.406824 0.528887 0.648756 0.761105 0.859570 0.937117 0.986200 0.999416 0.970113 0.893238 0.766208 0.590025 0.369940 0.116221 0.155655 0.425269 0.668761 0.860412 0.975695 0.994688 0.905875 0.709614 0.420745 0.069394 0.300884 0.637218 0.884899 0.996891 0.943821 0.722973 0.363585 0.073873 0.505695 0.839611 0.995217 0.925434 0.633176 0.178094 0.331245 0.760683 0.985629 0.929765 0.594838 0.070225 0.485073 0.888096 0.992926 0.748105 0.226629 0.387501 0.859495 0.993972 0.720653 0.138214 0.511884 0.940207 0.939992 0.494354 0.197013 0.797777 0.996148 0.672941 0.016469 0.703907 0.999876 0.719198 0.008937 0.713498 0.999321 0.652676 0.121180 0.821314 0.970173
1.000000 1.000000 1.000000 1.000000 1.000000 1.000000 1.000000 1.000000 1.000000 1.000000 1.000000 1.000000 1.000000 1.000000 1.000000 1.000000 1.000000 1.000000 1.000000 1.000000 1.000000 1.000000 1.000000 1.000000 -0.508728 -0.508728 -0.508728 -0.508728 -0.508728 -0.550207 -0.550207 -0.550207 -0.550207 -0.550207 -0.550207 -0.560967 -0.542423 -0.551842 -0.556126 -0.531200 -0.515139 -0.489527 -0.516119 -0.559637 -0.496663 -0.530673 -0.456000 -0.508952 -0.448501 -0.406757 -0.410022 -0.364759 -0.451740 -0.390287 -0.399772 -0.329454 -0.299552 -0.226829 -0.236381 -0.181312 -0.124243 -0.225131 -0.134248 -0.048602 0.012266 -0.039830 0.110845 0.058695 0.090734 0.155336 0.229364 0.192803 0.254606 0.327463 0.310740 0.389752 0.382975 0.484682 0.472574 0.561577 0.554644 0.675136 0.697368 0.731173 0.766998 0.714044 0.758043 0.781547 0.769700 0.840470 0.836559 0.838633 0.875184 0.884345 0.732410 0.740622 0.674489 0.640157 0.642528 0.650990 0.683773 0.662522 0.645943 0.634308 0.603198 0.524122 0.545336 0.542042 0.421714 0.454316 0.498963 0.426991 0.419822 0.350222 0.295651 0.357815 0.451151 0.258921 0.214070 0.169696 0.324497 0.259403 0.152565 0.131989 0.128406 0.034012 -0.002645 0.057188 0.052644 -0.002762 -0.028538 0.022526 -0.055913 -0.107412 -0.114630 -0.082257 -0.115514 -0.124647 -0.128813 -0.199229 -0.250880 -0.224840 -0.268582 -0.236584 -0.206777 -0.156832 -0.214314 -0.265821 -0.260820 -0.176327 -0.176004 -0.219687 -0.381193 -0.166434 -0.095713 -0.090565 -0.102008 -0.052970 -0.039167 -0.077203 -0.187455 -0.137958 -0.192032 -0.172255 0.014546 -0.179587 -0.185052 -0.219881 -0.193752 0.087239 -0.204750 -0.219639 -0.015576 -0.250586 -0.239483 -0.222495 -0.199015 -0.163365 -0.155961 -0.132814 -0.413627 -0.178063 -0.228633 -0.366095 -0.184392 -0.188477 -0.368853 -0.378043 -0.206634 -0.234819 -0.431517 -0.265652 -0.266542 -0.372790 -0.263047 -0.256714 -0.340541 -0.340760 -0.245074 -0.301143 -0.308101 -0.262954 -0.212283 -0.206352 -0.222157 -0.178062 -0.207134 -0.174863 -0.104267 -0.041946 -0.129511 -0.107692 0.081965 0.053597 -0.073551 -0.074393 0.103121 0.096498 0.033285 -0.032247 -0.025650 0.015389 0.044641 0.063977 0.065214 0.120420 0.158680 0.084852 0.098626 0.111697 0.126811 0.098174 0.151245 0.157350 0.156013 0.202062 0.273430 0.164669 0.172288 0.263305 0.266220 0.264748 0.266100 0.275294 0.250137 0.265124 0.220804 0.232067 0.272327 0.278292 0.287798 0.232776 0.242055 0.242668 0.246484 0.246585 0.298824 0.332972 0.322350 0.334337 0.333178 0.335289 0.336069 0.335635 0.321768 0.313585 0.316478 0.379936 0.375092 0.361841 0.339136 0.332885 0.331780 0.332280 0.336712 0.337972 0.345370 0.316299 0.315770 0.310086 0.297820 0.300191 0.299332 0.300162 0.297286 0.308764 0.299056 0.297624 0.303841 0.312579 0.306501 0.308598 0.310950 0.319470 0.329080 0.336015 0.330772 0.324945 0.325098 0.325722 0.352320 0.339247 0.333466 0.333812 0.349863 0.338260 0.334287 0.334224 0.360789 0.350021 0.348905 0.272017 0.265289 0.254003 0.254629 0.253196 0.242001 0.160321 0.155861 0.145550 0.141792 0.164859 0.112253 0.114742 0.114742 0.114742 0.118696 0.118696 0.118696 0.118696 0.122040 0.122040 0.122040 0.122040 0.122040 0.125444 0.125444 0.125444 0.125444 0.129444 0.129444 0.129444 0.129444 0.134328 0.134328 0.134328 0.134328 0.139954 0.139954 0.139954 0.139954 0.145292 0.145292 0.145292 0.145292 0.148662 0.148662 0.148662 0.148662 0.148585 0.148585 0.148585 0.148585
0.000000 0.000000 0.000000 0.000000 0.000000 0.000000 0.000000 0.000000 0.000000 0.000000 0.000000 0.000000 0.000000 0.000000 0.000000 0.000000 0.000000 0.000000 0.000000 0.000000 0.000000 0.000000 0.000000 0.000000 0.348155 0.348155 0.348155 0.348155 0.348155 0.417029 0.417029 0.417029 0.417029 0.417029 0.417029 0.417029 0.417029 0.417029 0.417029 0.417029 0.417029 0.417029 0.417029 0.417029 0.458831 0.458831 0.458831 0.458831 0.458831 0.417029 0.417029 0.417029 0.417029 0.417029 0.417029 0.458831 0.458831 0.458831 0.458831 0.436436 0.436436 0.436436 0.436436 0.436436 0.458831 0.458831 0.458831 0.458831 0.436436 0.436436 0.436436 0.436436 0.458831 0.458831 0.458831 0.417029 0.417029 0.417029 0.417029 0.458831 0.458831 0.458831 0.458831 0.458831 0.458831 0.400000 0.400000 0.400000 0.400000 0.436436 0.436436 0.436436 0.458831 0.458831 0.417029 0.417029 0.417029 0.417029 0.417029 0.417029 0.400000 0.400000 0.400000 0.458831 0.458831 0.400000 0.400000 0.400000 0.458831 0.458831 0.384900 0.384900 0.384900 0.436436 0.436436 0.436436 0.436436 0.371391 0.371391 0.371391 0.417029 0.417029 0.417029 0.417029 0.400000 0.400000 0.400000 0.400000 0.348155 0.348155 0.348155 0.400000 0.400000 0.384900 0.384900 0.384900 0.384900 0.384900 0.384900 0.371391 0.371391 0.458831 0.371391 0.371391 0.359211 0.359211 0.359211 0.359211 0.359211 0.359211 0.359211 0.359211 0.436436 0.348155 0.348155 0.348155 0.348155 0.338062 0.338062 0.417029 0.338062 0.338062 0.328798 0.328798 0.400000 0.328798 0.328798 0.328798 0.328798 0.400000 0.320256 0.320256 0.384900 0.312348 0.312348 0.312348 0.312348 0.384900 0.304997 0.304997 0.371391 0.304997 0.304997 0.371391 0.298142 0.298142 0.359211 0.359211 0.291730 0.291730 0.359211 0.291730 0.291730 0.348155 0.285714 0.285714 0.348155 0.348155 0.280056 0.280056 0.338062 0.338062 0.274721 0.274721 0.338062 0.338062 0.269680 0.269680 0.328798 0.328798 0.269680 0.269680 0.328798 0.320256 0.264906 0.264906 0.320256 0.320256 0.320256 0.256074 0.256074 0.312348 0.312348 0.312348 0.312348 0.251976 0.251976 0.304997 0.304997 0.304997 0.248069 0.248069 0.298142 0.298142 0.298142 0.298142 0.298142 0.240772 0.240772 0.291730 0.291730 0.291730 0.291730 0.285714 0.285714 0.285714 0.234082 0.234082 0.285714 0.280056 0.280056 0.280056 0.280056 0.280056 0.274721 0.274721 0.274721 0.225018 0.225018 0.274721 0.269680 0.269680 0.269680 0.269680 0.269680 0.264906 0.264906 0.264906 0.264906 0.264906 0.260378 0.260378 0.260378 0.260378 0.260378 0.256074 0.256074 0.256074 0.256074 0.256074 0.251976 0.251976 0.251976 0.251976 0.251976 0.248069 0.248069 0.248069 0.248069 0.248069 0.244339 0.244339 0.244339 0.244339 0.244339 0.240772 0.240772 0.240772 0.240772 0.237356 0.237356 0.237356 0.237356 0.237356 0.234082 0.234082 0.234082 0.234082 0.230940 0.230940 0.230940 0.230940 0.230940 0.227921 0.227921 0.227921 0.227921 0.225018 0.225018 0.225018 0.225018 0.225018 0.222222 0.222222 0.222222 0.222222 0.219529 0.219529 0.219529 0.219529 0.216930 0.216930 0.216930 0.216930 0.216930 0.214423 0.214423 0.214423 0.214423 0.212000 0.212000 0.212000 0.212000 0.209657 0.209657 0.209657 0.209657 0.207390 0.207390 0.207390 0.207390 0.205196 0.205196 0.205196 0.205196 0.203069 0.203069 0.203069 0.203069 0.201008 0.201008 0.201008 0.201008
