# Output from CTFFind version 4.1.14, run on 2024-08-30 16:05:31
# Input file: CtfFind/job005/Movies/20170629_00021_frameImage_PS.mrc ; Number of micrographs: 1
# Pixel size: 1.400 Angstroms ; acceleration voltage: 200.0 keV ; spherical aberration: 1.40 mm ; amplitude contrast: 0.10
# Box size: 512 pixels ; min. res.: 30.0 Angstroms ; max. res.: 5.0 Angstroms ; min. def.: 5000.0 um; max. def. 50000.0 um; num. frames averaged: 1
# 6 lines per micrograph: #1 - spatial frequency (1/Angstroms); #2 - 1D rotational average of spectrum (assuming no astigmatism); #3 - 1D rotational average of spectrum; #4 - CTF fit; #5 - cross-correlation between spectrum and CTF fit; #6 - 2sigma of expected cross correlation of noise
0.000000 0.001396 0.002791 0.004187 0.005582 0.006978 0.008373 0.009769 0.011164 0.012560 0.013955 0.015351 0.016746 0.018142 0.019538 0.020933 0.022329 0.023724 0.025120 0.026515 0.027911 0.029306 0.030702 0.032097 0.033493 0.034888 0.036284 0.037680 0.039075 0.040471 0.041866 0.043262 0.044657 0.046053 0.047448 0.048844 0.050239 0.051635 0.053030 0.054426 0.055822 0.057217 0.058613 0.060008 0.061404 0.062799 0.064195 0.065590 0.066986 0.068381 0.069777 0.071172 0.072568 0.073964 0.075359 0.076755 0.078150 0.079546 0.080941 0.082337 0.083732 0.085128 0.086523 0.087919 0.089314 0.090710 0.092106 0.093501 0.094897 0.096292 0.097688 0.099083 0.100479 0.101874 0.103270 0.104665 0.106061 0.107456 0.108852 0.110247 0.111643 0.113039 0.114434 0.115830 0.117225 0.118621 0.120016 0.121412 0.122807 0.124203 0.125598 0.126994 0.128389 0.129785 0.131181 0.132576 0.133972 0.135367 0.136763 0.138158 0.139554 0.140949 0.142345 0.143740 0.145136 0.146531 0.147927 0.149323 0.150718 0.152114 0.153509 0.154905 0.156300 0.157696 0.159091 0.160487 0.161882 0.163278 0.164673 0.166069 0.167465 0.168860 0.170256 0.171651 0.173047 0.174442 0.175838 0.177233 0.178629 0.180024 0.181420 0.182815 0.184211 0.185607 0.187002 0.188398 0.189793 0.191189 0.192584 0.193980 0.195375 0.196771 0.198166 0.199562 0.200957 0.202353 0.203749 0.205144 0.206540 0.207935 0.209331 0.210726 0.212122 0.213517 0.214913 0.216308 0.217704 0.219099 0.220495 0.221891 0.223286 0.224682 0.226077 0.227473 0.228868 0.230264 0.231659 0.233055 0.234450 0.235846 0.237241 0.238637 0.240033 0.241428 0.242824 0.244219 0.245615 0.247010 0.248406 0.249801 0.251197 0.252592 0.253988 0.255383 0.256779 0.258175 0.259570 0.260966 0.262361 0.263757 0.265152 0.266548 0.267943 0.269339 0.270734 0.272130 0.273525 0.274921 0.276317 0.277712 0.279108 0.280503 0.281899 0.283294 0.284690 0.286085 0.287481 0.288876 0.290272 0.291667 0.293063 0.294458 0.295854 0.297250 0.298645 0.300041 0.301436 0.302832 0.304227 0.305623 0.307018 0.308414 0.309809 0.311205 0.312600 0.313996 0.315392 0.316787 0.318183 0.319578 0.320974 0.322369 0.323765 0.325160 0.326556 0.327951 0.329347 0.330742 0.332138 0.333534 0.334929 0.336325 0.337720 0.339116 0.340511 0.341907 0.343302 0.344698 0.346093 0.347489 0.348884 0.350280 0.351676 0.353071 0.354467 0.355862 0.357258 0.358653 0.360049 0.361444 0.362840 0.364235 0.365631 0.367026 0.368422 0.369818 0.371213 0.372609 0.374004 0.375400 0.376795 0.378191 0.379586 0.380982 0.382377 0.383773 0.385168 0.386564 0.387960 0.389355 0.390751 0.392146 0.393542 0.394937 0.396333 0.397728 0.399124 0.400519 0.401915 0.403310 0.404706 0.406102 0.407497 0.408893 0.410288 0.411684 0.413079 0.414475 0.415870 0.417266 0.418661 0.420057 0.421452 0.422848 0.424244 0.425639 0.427035 0.428430 0.429826 0.431221 0.432617 0.434012 0.435408 0.436803 0.438199 0.439594 0.440990 0.442386 0.443781 0.445177 0.446572 0.447968 0.449363 0.450759 0.452154 0.453550 0.454945 0.456341 0.457736 0.459132 0.460528 0.461923 0.463319 0.464714 0.466110 0.467505 0.468901 0.470296 0.471692 0.473087 0.474483 0.475878 0.477274 0.478669 0.480065 0.481461 0.482856 0.484252 0.485647 0.487043 0.488438 0.489834 0.491229 0.492625 0.494020 0.495416 0.496811 0.498207 0.499603 0.500998 0.502394 0.503789 0.505185
      -0.26365       -0.18888       -0.12636       -0.10404       -0.09462       -0.08651       -0.08352       -0.08001       -0.07764       -0.07611       -0.07435       -0.07363       -0.07227       -0.07155       -0.07094       -0.07022       -0.06985       -0.06914       -0.06889       -0.06847       -0.06814       -0.06784       -0.06751       -0.06899       -0.35237       -0.90569       -1.21051       -1.04054       -0.61381        0.22340        0.82409        1.00389        0.82092       -0.03577       -0.67175       -0.98111       -0.93286       -0.30823        0.36394        0.51552        0.04365       -0.46487       -0.90221       -0.68431       -0.10089        0.30687        0.16640       -0.20310       -0.64183       -0.46480        0.06883        0.32814        0.02491       -0.28157       -0.18807        0.09310        0.29132        0.06212       -0.17606       -0.11257        0.14546        0.17302       -0.19644       -0.31359        0.00353        0.08030       -0.19519       -0.38254       -0.22688       -0.15222       -0.34014       -0.34141       -0.17013       -0.16386       -0.26238       -0.12600       -0.06392       -0.09094       -0.09453       -0.10569       -0.07232       -0.04322       -0.06009       -0.03812       -0.05045       -0.11799       -0.05563       -0.08362       -0.04068       -0.02919       -0.02799       -0.05368       -0.06676       -0.00972        0.00756       -0.01515        0.02226       -0.08229       -0.08299        0.02174       -0.01774        0.02520       -0.11412       -0.04801       -0.00985       -0.14016        0.02061       -0.06475       -0.02391       -0.11724       -0.09241       -0.05353       -0.07124       -0.04396       -0.08185       -0.07525       -0.06421       -0.13163       -0.07351       -0.02464       -0.10052       -0.00357       -0.03209       -0.03767       -0.05782       -0.01317       -0.06725       -0.07287       -0.09801        0.01289       -0.05734       -0.08023       -0.07363       -0.06684       -0.04360        0.01854       -0.02588       -0.04073       -0.07105       -0.07088       -0.07851       -0.07695       -0.13473       -0.09776       -0.09506       -0.09931       -0.02401       -0.09002       -0.07672       -0.04087       -0.06190       -0.01607       -0.10714       -0.05180       -0.03238       -0.07685       -0.04767       -0.08380       -0.04056       -0.05534       -0.08350       -0.09581       -0.01080       -0.05331       -0.04517       -0.05553       -0.07084       -0.06073       -0.05752       -0.07466       -0.08231       -0.03699       -0.04282       -0.04631       -0.10155       -0.05503       -0.10148       -0.03298       -0.02902       -0.07112       -0.09510       -0.07221       -0.08683       -0.07756       -0.11582       -0.02733       -0.03489       -0.02975       -0.04717       -0.04258       -0.01618       -0.07810       -0.07061       -0.06658       -0.06568       -0.07820       -0.13834       -0.09684       -0.11642       -0.08169       -0.04688       -0.06970       -0.06440       -0.03701       -0.05731       -0.03911       -0.03983       -0.05674       -0.08128       -0.11402       -0.06954       -0.04721       -0.07101       -0.04271       -0.04162       -0.07102       -0.07724       -0.04178        0.00446       -0.01808       -0.05900       -0.05842       -0.09105       -0.06822       -0.10458       -0.08031       -0.08925       -0.07490       -0.06454       -0.08500       -0.08316       -0.05600       -0.05261       -0.08063       -0.05375       -0.04859       -0.08641       -0.09307       -0.12167       -0.05076       -0.05187       -0.05779       -0.04785       -0.03099       -0.03574       -0.07691       -0.07175       -0.05529       -0.06233       -0.02203       -0.03257       -0.10150        0.00420       -0.00446       -0.05436       -0.08072       -0.07490       -0.05607       -0.06191       -0.02309       -0.09759       -0.10303       -0.09144       -0.07018       -0.10776       -0.09588       -0.10326       -0.07728       -0.03786       -0.06998       -0.07833       -0.06438       -0.06711       -0.03450       -0.04648       -0.02788        0.01115       -0.09299       -0.05295       -0.02743       -0.05122       -0.02044       -0.11739       -0.10236       -0.08293        0.03193       -0.02652       -0.11375       -0.09288       -0.10589       -0.04508       -0.01168       -0.04115       -0.06045       -0.08505       -0.06357       -0.14141       -0.14401       -0.08032       -0.09445       -0.05317       -0.07628       -0.04930       -0.07998       -0.04759       -0.01351       -0.06608       -0.09279       -0.01917       -0.05448       -0.03925       -0.04084       -0.02052       -0.11926       -0.06033       -0.12876       -0.07754       -0.18204        0.00676       -0.01448       -0.08207       -0.01892       -0.02940       -0.01789        0.10344       -0.06957       -0.03881       -0.05361       -0.05361       -0.08829       -0.07618       -0.04418       -0.02781       -0.13272       -0.06788       -0.13732       -0.16335       -0.02416        0.10277       -0.05636       -0.15612       -0.12756       -0.06070       -0.04911       -0.14310       -0.04031       -0.04632        0.07224        0.11876        0.07029        0.03197       -0.21107       -0.08317       -0.06307       -0.07549       -0.21146        0.10952       -0.07706       -0.33246       -0.28984       -0.02803       -0.10554       -1.39858
8.467621 16.186916 15.501357 14.850394 14.234023 13.652244 13.105061 12.592469 12.114472 11.671065 11.262252 10.792231 10.342249 9.917262 9.517270 9.133380 8.728297 8.344658 7.982461 7.626549 7.280414 6.954346 2.661548 -0.097037 -0.308042 -0.768137 -1.474121 -1.593122 -0.869878 0.965921 5.964903 16.793964 336.971976 -6.911082 5.285520 7.177260 7.772635 1.745857 -4.754122 -20.174927 12.732729 4.494170 -17.798833 -3.323935 -0.348052 1.293570 0.835906 -0.069374 -0.776874 -0.533800 7.452891 27.778965 14.985306 1.992713 3.363579 16.549276 20.664827 13.544676 2.962441 4.572023 15.452986 21.417392 6.463009 -0.136349 11.975176 19.913026 8.747728 -3.532185 5.087872 9.398528 2.331118 -1.570311 6.213520 6.895244 -0.925061 2.622937 7.507349 2.987457 1.494584 0.423852 3.859567 -0.011890 0.594103 2.576638 0.026351 -0.345338 -1.704674 0.242682 -2.088271 -0.527280 2.444234 2.610211 0.722399 4.791114 5.154126 -0.283463 3.164146 -0.603388 -2.195275 5.949266 -6.781342 5.474071 -3.034100 -3.901915 3.376086 -8.467274 0.733211 -3.318871 -1.587960 -1.736587 -6.383457 3.443430 -5.161320 2.602774 -2.360078 -0.758031 -0.512178 -0.924982 1.614135 2.894843 2.965557 -2.687370 2.481550 0.478189 7.323471 2.087592 1.724959 -2.792817 -3.233086 6.349795 4.375116 1.134268 -3.055226 0.945999 -2.651247 2.794444 4.282864 -3.244304 -0.762514 -2.805922 -1.753296 0.198720 -0.813909 -0.938368 -1.854601 -0.396965 -0.679119 -0.482310 2.591782 -1.114326 -1.498420 1.617622 -1.458044 2.200890 2.677549 4.193013 -0.627928 3.898806 0.373963 3.478614 5.519443 -2.930530 1.637875 1.233093 4.100208 3.093708 -0.917334 1.881253 -3.258630 0.017994 1.230573 1.596220 3.558071 -0.099136 -1.602820 -0.365585 -0.391901 2.853672 0.055545 -2.841032 -0.301696 2.002653 0.195530 -2.018037 -0.046720 -1.464673 -1.040324 1.351130 -0.586127 2.099872 -0.383087 2.355477 0.452293 -0.699649 -1.411538 -1.347562 1.711900 -3.073355 -1.221293 0.467432 -1.029484 1.563379 2.539123 -0.850867 0.336305 -1.109880 -0.202089 0.167750 -0.176394 -0.748946 0.833244 -0.690740 -0.763783 0.764177 -0.742661 -0.473676 0.589003 -1.035060 0.850360 -0.886225 2.989455 2.619875 -0.629600 1.618196 -1.634879 -0.863906 -1.046606 -0.647087 1.090089 -0.443792 -2.887991 0.975637 0.621150 -1.224881 3.503857 2.357640 -0.617672 0.832460 -3.696001 4.378469 -1.688691 0.923850 5.877222 -0.554700 5.324630 2.797216 0.673290 -2.606748 -1.102484 3.708583 -1.945572 2.994734 3.017971 -3.107339 0.674312 2.682687 2.145756 -0.954259 -4.135394 1.006145 1.936903 -2.037486 -5.904892 -1.162682 -3.070852 -5.454636 -4.824205 0.301611 -0.250938 -3.601175 -4.249273 -0.772196 -3.322172 -2.763701 2.780811 -3.488461 -0.828055 -4.462523 2.433251 -0.675396 -4.571580 -8.436723 -2.718137 -1.180862 -4.073897 -0.885873 -2.111824 -5.459291 -10.071674 -7.847920 -13.570547 0.152450 4.547732 -3.159820 -4.680710 -7.414918 -6.280481 -7.746495 -8.942581 -10.541836 -6.883040 -4.737195 -7.296140 2.324810 -9.594761 -4.695356 -8.887400 1.839030 -3.359455 -4.012365 2.922691 -11.937611 -3.300227 -4.565064 4.983988 -8.950463 -9.099814 -9.841541 -5.524376 -7.572774 3.919689 -3.679481 -0.565851 -3.136045 1.264415 -7.041532 4.222798 -7.012027 0.205653 -0.534794 1.153445 -1.392749 3.942722 -2.030919 -8.406336 -13.173574 1.935691 -9.309151 3.378408 -7.218578 9.210274 -4.255812 0.638892 2.389291 -2.070865 -1.580102 13.790000 12.310500 8.064310 7.210251 0.368179 -2.326568 14.605824 6.421820 9.013540 -10.158604 0.132884 -40.937892 -3.884693 -48.872578 22.993123 -11.937423 16.917314
0.100000 0.105560 0.122220 0.149907 0.188468 0.237614 0.296852 0.365397 0.442068 0.525178 0.612425 0.700788 0.786460 0.864819 0.930472 0.977398 0.999210 0.989551 0.942656 0.854047 0.721355 0.545197 0.330015 0.084741 0.176869 0.436426 0.671781 0.858720 0.973505 0.996149 0.914129 0.726031 0.444437 0.097242 0.273391 0.615003 0.871877 0.994599 0.950806 0.735037 0.375058 0.067905 0.506850 0.844830 0.996906 0.913764 0.600629 0.124650 0.394463 0.811716 0.997483 0.880958 0.481935 0.083198 0.629249 0.960561 0.943494 0.566566 0.039472 0.638404 0.977124 0.895660 0.411048 0.270415 0.831815 0.991401 0.650915 0.033089 0.707593 0.999788 0.728551 0.029895 0.694342 0.999986 0.678697 0.084604 0.799513 0.978330 0.477919 0.367904 0.952966 0.831342 0.073180 0.748703 0.978913 0.411029 0.504645 0.996943 0.624376 0.306392 0.965716 0.734934 0.192116 0.940212 0.769056 0.173763 0.945035 0.737799 0.252548 0.976043 0.631089 0.421623 0.999980 0.423150 0.655100 0.953617 0.091654 0.887771 0.753824 0.345135 0.999999 0.337008 0.780511 0.839255 0.262158 0.999443 0.315580 0.826591 0.760137 0.437195 0.978310 0.024218 0.969857 0.441378 0.791718 0.748829 0.519556 0.929004 0.220932 0.997009 0.057090 0.983721 0.289159 0.922956 0.467057 0.844097 0.593170 0.769221 0.674632 0.713096 0.719047 0.684335 0.731770 0.686702 0.714529 0.719869 0.665054 0.779382 0.577632 0.855804 0.444605 0.933424 0.259346 0.989224 0.020712 0.993243 0.261085 0.911958 0.558178 0.716238 0.821127 0.394623 0.981409 0.030169 0.965293 0.487334 0.721665 0.857766 0.259829 0.999689 0.317842 0.806448 0.814932 0.283562 0.998550 0.394866 0.718812 0.909530 0.044485 0.939261 0.685895 0.388318 0.999608 0.448876 0.610863 0.980391 0.267744 0.730930 0.946365 0.171463 0.774902 0.934468 0.168307 0.756512 0.954255 0.258315 0.669866 0.989073 0.433757 0.492483 0.994719 0.667690 0.199488 0.901089 0.894996 0.206544 0.630189 0.999954 0.653057 0.146218 0.838527 0.966092 0.464212 0.327511 0.908478 0.934364 0.409025 0.345905 0.898945 0.955247 0.503077 0.204298 0.800567 0.997584 0.717064 0.108064 0.541865 0.946821 0.945200 0.555010 0.051060 0.628967 0.963287 0.943859 0.593972 0.048148 0.504963 0.889642 0.996582 0.808444 0.394143 0.120684 0.594632 0.909601 0.997764 0.851505 0.517567 0.079331 0.366286 0.730592 0.949989 0.994367 0.867924 0.603253 0.251570 0.128450 0.480963 0.760795 0.938140 0.999939 0.948806 0.799911 0.576901 0.307738 0.020800 0.258154 0.508079 0.713692 0.865669 0.960336 0.998701 0.985471 0.927821 0.834325 0.714092 0.575917 0.427869 0.276857 0.128471 0.012857 0.144089 0.263270 0.369349 0.461982 0.541508 0.608663 0.664310 0.709585 0.745570 0.773271 0.793573 0.807286 0.814902 0.816750 0.812924 0.803230 0.787316 0.764582 0.734219 0.695348 0.646888 0.587813 0.517087 0.433913 0.337623 0.228277 0.106318 0.026970 0.169411 0.317482 0.466756 0.611432 0.744485 0.857936 0.943295 0.991868 0.995698 0.948356 0.845969 0.688360 0.479801 0.230090 0.045716 0.327027 0.589226 0.805529 0.949768 0.999974 0.942027 0.773324 0.505686 0.165992 0.204592 0.555015 0.830526 0.982089 0.975670 0.801552 0.479913 0.061725 0.376710 0.747073 0.966302 0.976805 0.764053 0.366098 0.128926 0.599279 0.918888 0.992024 0.785351 0.345620 0.205271 0.700099 0.976521 0.932268 0.568045 0.001472 0.578060 0.945868 0.954550 0.585798 0.025509
1.000000 1.000000 1.000000 1.000000 1.000000 1.000000 1.000000 1.000000 1.000000 1.000000 1.000000 1.000000 1.000000 1.000000 1.000000 1.000000 1.000000 1.000000 1.000000 1.000000 1.000000 1.000000 1.000000 1.000000 0.066609 0.066609 0.066609 0.066609 0.066609 -0.030596 -0.030596 -0.030596 -0.030596 -0.030596 -0.030596 -0.030596 -0.030596 -0.071326 0.026723 0.011103 0.143861 0.198620 0.292570 0.281973 0.279642 0.363332 0.397494 0.432155 0.577121 0.519585 0.537712 0.490335 0.507301 0.513663 0.716205 0.702821 0.722055 0.771699 0.792499 0.780230 0.751147 0.771070 0.840375 0.811420 0.810097 0.726870 0.679782 0.680082 0.674726 0.702028 0.656091 0.674547 0.617206 0.555454 0.501078 0.492945 0.444781 0.445981 0.435940 0.435033 0.436904 0.348380 0.353547 0.372275 0.498586 0.496577 0.512526 0.563989 0.614365 0.638005 0.605812 0.497346 0.487131 0.526163 0.501396 0.459403 0.319519 0.260677 0.279047 0.218414 0.146034 0.114507 0.106359 -0.031060 -0.016118 0.032950 0.000112 -0.049430 -0.046702 -0.034215 -0.013242 -0.230161 -0.100603 -0.092859 -0.123698 -0.034342 -0.024303 0.049740 0.129484 0.218488 0.081260 0.140150 0.147949 0.309617 0.299999 0.247212 0.217502 0.207436 0.248654 0.201017 0.170022 0.155871 0.253194 0.186737 0.122234 0.077604 0.037872 0.037463 0.048306 0.106775 0.095990 0.180118 0.243269 0.241425 0.173617 0.357552 0.346885 0.342713 0.320692 0.349495 0.287214 0.301374 0.318042 0.351814 0.473961 0.363654 0.353161 0.373874 0.338381 0.357609 0.351803 0.262141 0.245251 0.382200 0.218837 0.201799 0.208101 0.200641 0.193468 0.221430 0.169914 0.055970 0.069112 -0.043513 0.001070 -0.051415 -0.051252 -0.081128 -0.367520 -0.093010 -0.117729 -0.381311 -0.235178 -0.257254 -0.221017 -0.259432 -0.435835 -0.376854 -0.341676 -0.515850 -0.301551 -0.347715 -0.495305 -0.378898 -0.380794 -0.347042 -0.326529 -0.336921 -0.359065 -0.357832 -0.404674 -0.368621 -0.253731 -0.366632 -0.334111 -0.397512 -0.398046 -0.305980 -0.286812 -0.259093 -0.252904 -0.244406 -0.203830 -0.193530 -0.232045 -0.240341 -0.242645 -0.216781 -0.182875 -0.160379 -0.191079 -0.179640 -0.111122 -0.113441 -0.055678 -0.073473 -0.085547 -0.097236 -0.096433 -0.017818 -0.046220 -0.063834 -0.039967 -0.025559 -0.051654 -0.012453 -0.008590 0.032705 0.030960 0.032050 0.025926 -0.002881 0.019933 0.026368 0.026633 0.125352 0.131028 0.130993 0.123847 0.112641 0.067872 0.070918 0.108718 0.121378 0.126405 0.138244 0.137004 0.140025 0.150098 0.017449 0.106370 0.154786 0.147385 0.142558 0.124613 0.129132 0.121381 0.121290 0.115229 0.107703 0.131987 0.130043 0.153471 0.161035 0.166065 0.166661 0.167600 0.170605 0.169513 0.207078 0.213871 0.222215 0.219627 0.219846 0.260425 0.250919 0.243020 0.232689 0.230823 0.233825 0.240430 0.172158 0.172942 0.175411 0.237389 0.229457 0.222430 0.220821 0.222457 0.222147 0.221835 0.235024 0.221715 0.222911 0.219666 0.226133 0.234305 0.269164 0.267811 0.269250 0.272218 0.272235 0.227178 0.218121 0.213342 0.213557 0.213982 0.213466 0.206299 0.204899 0.203669 0.169459 0.162174 0.162310 0.122959 0.123178 0.125713 0.125713 0.125713 0.125713 0.130820 0.130820 0.130820 0.130820 0.130820 0.136965 0.136965 0.136965 0.136965 0.142081 0.142081 0.142081 0.142081 0.143551 0.143551 0.143551 0.143551 0.143551 0.139281 0.139281 0.139281 0.139281 0.130282 0.130282 0.130282 0.130282 0.127196 0.127196 0.127196 0.127196 0.123413 0.123413 0.123413
0.000000 0.000000 0.000000 0.000000 0.000000 0.000000 0.000000 0.000000 0.000000 0.000000 0.000000 0.000000 0.000000 0.000000 0.000000 0.000000 0.000000 0.000000 0.000000 0.000000 0.000000 0.000000 0.000000 0.000000 0.359211 0.359211 0.359211 0.359211 0.359211 0.384900 0.384900 0.384900 0.384900 0.384900 0.384900 0.384900 0.384900 0.384900 0.417029 0.417029 0.417029 0.417029 0.417029 0.417029 0.417029 0.436436 0.436436 0.436436 0.436436 0.436436 0.436436 0.458831 0.458831 0.458831 0.458831 0.458831 0.436436 0.436436 0.436436 0.436436 0.436436 0.458831 0.458831 0.458831 0.458831 0.417029 0.417029 0.417029 0.417029 0.417029 0.458831 0.458831 0.458831 0.436436 0.436436 0.436436 0.436436 0.417029 0.417029 0.417029 0.417029 0.458831 0.458831 0.458831 0.400000 0.400000 0.400000 0.400000 0.436436 0.436436 0.436436 0.436436 0.436436 0.436436 0.436436 0.436436 0.436436 0.417029 0.417029 0.417029 0.417029 0.417029 0.417029 0.458831 0.458831 0.400000 0.400000 0.400000 0.400000 0.400000 0.400000 0.458831 0.458831 0.384900 0.384900 0.384900 0.436436 0.436436 0.436436 0.436436 0.371391 0.371391 0.371391 0.417029 0.417029 0.417029 0.417029 0.400000 0.400000 0.348155 0.348155 0.348155 0.400000 0.400000 0.400000 0.400000 0.384900 0.384900 0.384900 0.384900 0.384900 0.384900 0.371391 0.371391 0.371391 0.371391 0.371391 0.371391 0.359211 0.359211 0.359211 0.359211 0.359211 0.359211 0.436436 0.348155 0.348155 0.348155 0.348155 0.348155 0.348155 0.338062 0.338062 0.417029 0.338062 0.338062 0.328798 0.328798 0.400000 0.328798 0.328798 0.328798 0.328798 0.400000 0.320256 0.320256 0.320256 0.320256 0.384900 0.312348 0.312348 0.384900 0.304997 0.304997 0.304997 0.304997 0.371391 0.304997 0.304997 0.371391 0.298142 0.298142 0.359211 0.291730 0.291730 0.359211 0.291730 0.291730 0.348155 0.348155 0.285714 0.285714 0.348155 0.280056 0.280056 0.338062 0.338062 0.274721 0.274721 0.338062 0.274721 0.274721 0.328798 0.328798 0.269680 0.269680 0.328798 0.328798 0.264906 0.264906 0.320256 0.320256 0.260378 0.260378 0.320256 0.312348 0.312348 0.256074 0.256074 0.312348 0.312348 0.304997 0.251976 0.251976 0.304997 0.304997 0.304997 0.244339 0.244339 0.298142 0.298142 0.298142 0.298142 0.240772 0.240772 0.291730 0.291730 0.291730 0.291730 0.285714 0.234082 0.234082 0.285714 0.285714 0.285714 0.280056 0.280056 0.280056 0.280056 0.227921 0.227921 0.274721 0.274721 0.274721 0.274721 0.274721 0.269680 0.269680 0.269680 0.269680 0.219529 0.219529 0.264906 0.264906 0.264906 0.264906 0.264906 0.260378 0.260378 0.260378 0.260378 0.260378 0.256074 0.256074 0.256074 0.256074 0.256074 0.251976 0.251976 0.251976 0.251976 0.251976 0.248069 0.248069 0.248069 0.248069 0.248069 0.244339 0.244339 0.244339 0.244339 0.244339 0.240772 0.240772 0.240772 0.240772 0.240772 0.237356 0.237356 0.237356 0.237356 0.237356 0.234082 0.234082 0.234082 0.234082 0.230940 0.230940 0.230940 0.230940 0.230940 0.227921 0.227921 0.227921 0.227921 0.227921 0.225018 0.225018 0.225018 0.225018 0.222222 0.222222 0.222222 0.222222 0.222222 0.219529 0.219529 0.219529 0.219529 0.216930 0.216930 0.216930 0.216930 0.214423 0.214423 0.214423 0.214423 0.214423 0.212000 0.212000 0.212000 0.212000 0.209657 0.209657 0.209657 0.209657 0.207390 0.207390 0.207390 0.207390 0.205196 0.205196 0.205196
