# Output from CTFFind version 4.1.14, run on 2024-08-30 16:05:32
# Input file: CtfFind/job005/Movies/20170629_00044_frameImage_PS.mrc ; Number of micrographs: 1
# Pixel size: 1.400 Angstroms ; acceleration voltage: 200.0 keV ; spherical aberration: 1.40 mm ; amplitude contrast: 0.10
# Box size: 512 pixels ; min. res.: 30.0 Angstroms ; max. res.: 5.0 Angstroms ; min. def.: 5000.0 um; max. def. 50000.0 um; num. frames averaged: 1
# 6 lines per micrograph: #1 - spatial frequency (1/Angstroms); #2 - 1D rotational average of spectrum (assuming no astigmatism); #3 - 1D rotational average of spectrum; #4 - CTF fit; #5 - cross-correlation between spectrum and CTF fit; #6 - 2sigma of expected cross correlation of noise
0.000000 0.001396 0.002791 0.004187 0.005582 0.006978 0.008373 0.009769 0.011164 0.012560 0.013955 0.015351 0.016746 0.018142 0.019538 0.020933 0.022329 0.023724 0.025120 0.026515 0.027911 0.029306 0.030702 0.032097 0.033493 0.034888 0.036284 0.037680 0.039075 0.040471 0.041866 0.043262 0.044657 0.046053 0.047448 0.048844 0.050239 0.051635 0.053030 0.054426 0.055822 0.057217 0.058613 0.060008 0.061404 0.062799 0.064195 0.065590 0.066986 0.068381 0.069777 0.071172 0.072568 0.073964 0.075359 0.076755 0.078150 0.079546 0.080941 0.082337 0.083732 0.085128 0.086523 0.087919 0.089314 0.090710 0.092106 0.093501 0.094897 0.096292 0.097688 0.099083 0.100479 0.101874 0.103270 0.104665 0.106061 0.107456 0.108852 0.110247 0.111643 0.113039 0.114434 0.115830 0.117225 0.118621 0.120016 0.121412 0.122807 0.124203 0.125598 0.126994 0.128389 0.129785 0.131181 0.132576 0.133972 0.135367 0.136763 0.138158 0.139554 0.140949 0.142345 0.143740 0.145136 0.146531 0.147927 0.149323 0.150718 0.152114 0.153509 0.154905 0.156300 0.157696 0.159091 0.160487 0.161882 0.163278 0.164673 0.166069 0.167465 0.168860 0.170256 0.171651 0.173047 0.174442 0.175838 0.177233 0.178629 0.180024 0.181420 0.182815 0.184211 0.185607 0.187002 0.188398 0.189793 0.191189 0.192584 0.193980 0.195375 0.196771 0.198166 0.199562 0.200957 0.202353 0.203749 0.205144 0.206540 0.207935 0.209331 0.210726 0.212122 0.213517 0.214913 0.216308 0.217704 0.219099 0.220495 0.221891 0.223286 0.224682 0.226077 0.227473 0.228868 0.230264 0.231659 0.233055 0.234450 0.235846 0.237241 0.238637 0.240033 0.241428 0.242824 0.244219 0.245615 0.247010 0.248406 0.249801 0.251197 0.252592 0.253988 0.255383 0.256779 0.258175 0.259570 0.260966 0.262361 0.263757 0.265152 0.266548 0.267943 0.269339 0.270734 0.272130 0.273525 0.274921 0.276317 0.277712 0.279108 0.280503 0.281899 0.283294 0.284690 0.286085 0.287481 0.288876 0.290272 0.291667 0.293063 0.294458 0.295854 0.297250 0.298645 0.300041 0.301436 0.302832 0.304227 0.305623 0.307018 0.308414 0.309809 0.311205 0.312600 0.313996 0.315392 0.316787 0.318183 0.319578 0.320974 0.322369 0.323765 0.325160 0.326556 0.327951 0.329347 0.330742 0.332138 0.333534 0.334929 0.336325 0.337720 0.339116 0.340511 0.341907 0.343302 0.344698 0.346093 0.347489 0.348884 0.350280 0.351676 0.353071 0.354467 0.355862 0.357258 0.358653 0.360049 0.361444 0.362840 0.364235 0.365631 0.367026 0.368422 0.369818 0.371213 0.372609 0.374004 0.375400 0.376795 0.378191 0.379586 0.380982 0.382377 0.383773 0.385168 0.386564 0.387960 0.389355 0.390751 0.392146 0.393542 0.394937 0.396333 0.397728 0.399124 0.400519 0.401915 0.403310 0.404706 0.406102 0.407497 0.408893 0.410288 0.411684 0.413079 0.414475 0.415870 0.417266 0.418661 0.420057 0.421452 0.422848 0.424244 0.425639 0.427035 0.428430 0.429826 0.431221 0.432617 0.434012 0.435408 0.436803 0.438199 0.439594 0.440990 0.442386 0.443781 0.445177 0.446572 0.447968 0.449363 0.450759 0.452154 0.453550 0.454945 0.456341 0.457736 0.459132 0.460528 0.461923 0.463319 0.464714 0.466110 0.467505 0.468901 0.470296 0.471692 0.473087 0.474483 0.475878 0.477274 0.478669 0.480065 0.481461 0.482856 0.484252 0.485647 0.487043 0.488438 0.489834 0.491229 0.492625 0.494020 0.495416 0.496811 0.498207 0.499603 0.500998 0.502394 0.503789 0.505185
      -0.10293       -0.05987       -0.02387       -0.01102       -0.00560       -0.00093        0.00079        0.00282        0.00418        0.00506        0.00608        0.00649        0.00727        0.00769        0.00804        0.00845        0.00867        0.00907        0.00922        0.00946        0.00965        0.00982        0.01001        0.01284        0.12966       -0.31463       -0.77460       -0.84588       -0.70541       -0.24923        0.18165        0.61782        0.72946        0.37413       -0.22325       -0.70960       -0.90308       -0.58590       -0.15981        0.23068        0.35610        0.09643       -0.31870       -0.64064       -0.47870       -0.00470        0.34608        0.34813       -0.07130       -0.44712       -0.38198        0.23448        0.40513        0.28598       -0.07339       -0.10447        0.08394        0.36032        0.36211        0.00437       -0.14233        0.18893        0.33843        0.21508       -0.19883       -0.20776        0.07118        0.20530       -0.10710       -0.30147        0.02186        0.15602       -0.26344       -0.34079        0.00043        0.10092       -0.28094       -0.21198        0.08272       -0.00050       -0.23270        0.09410        0.19805       -0.13079       -0.06431        0.26160       -0.08070       -0.22588        0.18419       -0.01334       -0.18309        0.13652        0.01647       -0.16187        0.13407        0.04245       -0.13524        0.16793        0.11143       -0.05618        0.21488        0.00252        0.06462        0.15320       -0.04882        0.15285        0.05112       -0.02770        0.05958       -0.05729       -0.09045        0.03216       -0.05572        0.00098       -0.03445       -0.02562       -0.04975        0.02613       -0.02789        0.03061        0.01288        0.00152        0.02471        0.08929        0.05264        0.07227        0.05884        0.05777        0.00090        0.05123        0.01149        0.05599       -0.02883       -0.01822       -0.02379        0.02445        0.03089        0.04830        0.04712       -0.04222        0.05523        0.02244        0.01269        0.06190        0.01887        0.01884        0.02760       -0.01727       -0.05029        0.00749        0.04431       -0.02468        0.00827       -0.03470        0.02710        0.05788        0.03613       -0.01191        0.01783        0.00835        0.02501        0.05030        0.01925       -0.00722        0.00111        0.01444        0.01307        0.00554        0.04231       -0.01085       -0.03821        0.01354       -0.04196        0.00812       -0.04832       -0.02062        0.03923        0.03175        0.05441       -0.01083       -0.01929        0.01595        0.01074        0.01800       -0.03887       -0.03734        0.02354        0.00296        0.01190        0.02194        0.05905        0.02707        0.04587        0.03545        0.04957       -0.03492        0.04407        0.03712        0.06875       -0.02310       -0.02056       -0.04965       -0.01843       -0.04104       -0.00507        0.01945        0.04738        0.01386        0.02306        0.04768        0.07595       -0.00284        0.00257        0.03585        0.01108        0.01804       -0.00248        0.02729        0.00113        0.01254        0.06121        0.03195        0.00298       -0.01152        0.00252        0.02382       -0.02252        0.00030       -0.00120       -0.01288        0.00103        0.02733        0.05782        0.00396       -0.01277        0.00726        0.04270        0.03100        0.02912        0.01815        0.01094        0.02448        0.03159        0.02431        0.02656        0.05274        0.01108        0.01676       -0.00729        0.02183       -0.00094        0.02215       -0.06071        0.00508       -0.00195       -0.03154        0.06351        0.02095       -0.00230        0.00406        0.02082        0.00243        0.00845        0.07700        0.00186       -0.05960        0.01425        0.01439        0.03115       -0.03220        0.02545        0.02469       -0.00615       -0.02684        0.01861        0.03151        0.04809        0.02116        0.07889       -0.01848        0.03601        0.02043       -0.01497       -0.02402        0.00855       -0.02187        0.01951       -0.00655       -0.02806        0.01043        0.05794        0.04403        0.03655        0.05969        0.03641        0.02721       -0.02846       -0.02094        0.05457        0.05554       -0.01227       -0.00363        0.01793        0.01511        0.00876       -0.04864       -0.08549        0.00252       -0.06715        0.04759       -0.04007       -0.02005        0.07208        0.00977        0.09899        0.01994        0.08766        0.02304        0.03015        0.07707       -0.09123       -0.01323       -0.01441        0.08652        0.05165        0.01943        0.03959       -0.02595       -0.02997        0.04767        0.00443       -0.00081        0.02911       -0.03639       -0.14981       -0.04308        0.11641        0.03793        0.02439        0.09883        0.08461        0.16163       -0.01947       -0.09097       -0.00452       -0.02163       -0.11383        0.03894       -0.05818       -0.02047       -0.05414        0.03369       -0.11964        0.07219        0.02903        0.06953        0.26622        0.21096       -0.05705       -0.25972        0.52150        1.04447        1.55576
-0.102928 -0.003947 -0.003687 -0.003254 -0.002648 -0.001869 -0.000917 0.000208 0.001507 0.002979 0.004623 0.005274 0.005970 0.006726 0.007543 0.008289 0.008567 0.008863 0.009177 0.009600 0.010100 0.010625 -0.000043 -0.017428 -0.043767 -0.321564 -0.610692 -0.642056 -0.542544 -0.285127 0.131122 0.411851 0.550586 0.316062 -0.165091 -0.524233 -0.785652 -0.552717 -0.230989 0.175560 0.217086 0.076870 -0.251800 -0.526685 -0.432009 -0.099154 0.317640 0.298657 -0.021187 -0.335513 -0.336461 0.123136 0.383758 0.314276 -0.007181 -0.090540 0.071522 0.315436 0.346720 0.075254 -0.114056 0.097266 0.326009 0.213989 -0.139709 -0.225004 0.055423 0.236172 -0.026449 -0.289900 -0.057982 0.145857 -0.183550 -0.436902 -0.044051 0.133920 -0.259512 -0.361945 0.095304 0.036355 -0.233846 -0.023844 0.308201 -0.112087 -0.129533 0.318291 0.018192 -0.362793 0.159874 0.118538 -0.322119 0.144410 0.223726 -0.473087 0.110709 0.282229 -0.332740 0.158712 0.301592 -0.264793 0.339713 0.070627 -0.166258 0.399721 -0.215485 0.221679 0.162502 -0.202637 0.219271 -0.116422 -0.101672 0.174424 -0.197832 0.127934 -0.119972 -0.036978 0.024012 -0.113820 0.092992 -0.076476 0.136865 -0.048916 0.047724 0.085511 0.060490 0.053806 0.030279 0.061308 0.028980 0.029587 0.036882 0.044516 -0.014629 -0.021212 -0.092723 0.008632 0.016279 -0.033215 0.053919 0.047986 -0.059780 0.108941 0.008896 0.076009 0.016254 -0.002811 -0.010459 0.086415 -0.033007 -0.023296 -0.032742 0.096045 -0.014245 0.011236 0.024211 -0.001581 0.057563 0.027770 0.009459 -0.032098 0.064076 0.042605 0.039065 -0.044980 0.009767 0.037481 0.060332 0.043152 -0.019352 -0.056122 0.003173 -0.016498 0.011769 -0.035090 -0.035461 0.028722 0.052044 -0.041393 0.112916 -0.002471 -0.079603 0.044327 0.012665 -0.000400 -0.013432 -0.001133 -0.102015 0.043565 0.043232 -0.046694 0.050795 0.067372 0.011874 0.040006 0.000937 0.110376 0.047110 0.060622 -0.007375 0.074029 -0.054113 -0.011288 -0.026518 -0.134923 -0.036085 -0.044530 0.012954 0.022106 0.053727 -0.001324 0.050578 0.059565 0.008275 -0.026604 0.011709 0.059882 0.005612 0.033101 -0.036263 -0.014666 0.008342 0.065060 -0.038680 0.045973 -0.012647 -0.019014 -0.001851 -0.012234 -0.012484 0.057903 0.020027 0.019233 0.007483 -0.033755 0.061945 0.023889 0.085657 0.086618 -0.015370 0.051741 0.005961 0.083390 0.010727 -0.016462 0.001199 0.043678 0.067918 0.049042 -0.042301 0.033561 0.060461 -0.004421 -0.105761 -0.046498 0.097946 0.075033 -0.060672 0.031490 -0.022014 0.122646 -0.002154 0.018698 0.023124 0.059399 -0.087997 0.102382 -0.040780 -0.040209 0.047950 0.021111 -0.001823 -0.033937 -0.061981 -0.009956 -0.100825 -0.028678 0.054383 0.080559 -0.012177 -0.003264 -0.114933 0.013448 0.006322 -0.149241 -0.041739 0.052782 -0.004943 0.081761 -0.056964 0.071989 0.065092 -0.103957 -0.035159 -0.016410 0.105905 0.182891 0.046868 0.074598 -0.048481 0.090548 0.044995 -0.095274 -0.115354 -0.002155 -0.042113 0.140800 -0.114285 -0.036934 -0.023434 -0.028425 -0.212743 -0.000761 0.102879 0.019752 0.032202 -0.076741 0.150572 -0.129818 0.051042 0.103471 0.026547 -0.047152 0.003315 0.029544 0.032992 0.148562 0.138218 -0.127260 -0.011565 0.233157 0.031718 0.154033 0.053504 0.013852 -0.136998 0.209708 -0.291557 0.027183 0.126092 0.090796 0.039279 -0.006470 -0.150781 -0.121105 0.252414 0.027444 -0.380310 -0.068145 -0.231168 0.008765 0.136716 0.029810 -0.487943 0.134828 -0.417540 0.146353 -0.037273 -0.225462 -0.721230 0.122847 0.721605 -0.234163 0.459343
0.100000 0.105452 0.121790 0.148943 0.186765 0.234982 0.293125 0.360450 0.435837 0.517689 0.603823 0.691375 0.776728 0.855480 0.922482 0.971955 0.997723 0.993580 0.953790 0.873736 0.750684 0.584616 0.379042 0.141682 0.115139 0.374543 0.615772 0.815607 0.950594 0.999994 0.949259 0.793572 0.540892 0.213728 0.151082 0.505240 0.794753 0.968337 0.987463 0.836312 0.529338 0.113933 0.333860 0.721459 0.958687 0.980278 0.766619 0.356315 0.155213 0.634169 0.942137 0.977803 0.714454 0.219267 0.356609 0.819908 0.999998 0.815947 0.319319 0.310058 0.822861 0.998335 0.744714 0.155585 0.512906 0.947155 0.924898 0.437928 0.281228 0.859520 0.975089 0.544754 0.204364 0.840718 0.973328 0.501013 0.296144 0.907352 0.915798 0.295007 0.539152 0.992615 0.718606 0.099509 0.847894 0.934345 0.269039 0.622924 0.998353 0.519995 0.417366 0.988466 0.662209 0.282237 0.965366 0.719591 0.236868 0.961474 0.707028 0.285491 0.980917 0.621026 0.423369 0.999878 0.441802 0.630341 0.965982 0.147490 0.854155 0.804559 0.255707 0.994181 0.447235 0.690474 0.909828 0.104278 0.978396 0.488345 0.695695 0.882841 0.217450 0.999209 0.284086 0.865032 0.683387 0.566557 0.922244 0.200914 0.999832 0.154289 0.950033 0.452261 0.819388 0.674972 0.651898 0.824781 0.481656 0.915205 0.331307 0.963435 0.213826 0.985523 0.135476 0.993726 0.098716 0.995364 0.104228 0.992430 0.151864 0.981549 0.240579 0.954110 0.367108 0.896823 0.523742 0.793177 0.695355 0.626589 0.856741 0.385746 0.971431 0.072564 0.994502 0.288823 0.881574 0.644816 0.605448 0.913048 0.178383 0.997415 0.327539 0.821944 0.776291 0.379039 0.996391 0.227274 0.850417 0.776586 0.329610 0.999795 0.377274 0.722143 0.913336 0.021470 0.926076 0.721327 0.329582 0.994620 0.525959 0.528218 0.996335 0.385372 0.631544 0.983567 0.324852 0.657255 0.983113 0.351734 0.611169 0.995646 0.462821 0.483626 0.995917 0.641052 0.256219 0.933410 0.843310 0.079220 0.740955 0.986049 0.488470 0.364086 0.947519 0.859221 0.180525 0.613485 0.996915 0.736482 0.016568 0.706499 0.999989 0.707163 0.014978 0.678213 0.997162 0.787166 0.175499 0.516890 0.949835 0.928203 0.479708 0.177795 0.749749 0.997937 0.833996 0.340716 0.277204 0.782919 0.998012 0.860154 0.432527 0.130541 0.643515 0.951214 0.972638 0.716157 0.266967 0.245255 0.685893 0.950197 0.985393 0.796561 0.438102 0.004666 0.437574 0.777778 0.968573 0.986085 0.838910 0.561964 0.206597 0.169822 0.513713 0.782398 0.948231 0.999871 0.940925 0.786926 0.561417 0.291897 0.006179 0.270637 0.518010 0.720966 0.870413 0.962784 0.999102 0.983994 0.924540 0.829258 0.707176 0.567023 0.416856 0.263660 0.113139 0.030404 0.163723 0.284874 0.392770 0.487100 0.568117 0.636555 0.693414 0.739816 0.776943 0.805873 0.827658 0.843164 0.853021 0.857712 0.857456 0.852258 0.841841 0.825803 0.803398 0.773836 0.736093 0.689061 0.631600 0.562641 0.481249 0.386792 0.279009 0.158305 0.025783 0.116596 0.265621 0.417139 0.565534 0.704178 0.825331 0.920590 0.981443 0.999698 0.968563 0.883478 0.743176 0.550610 0.313663 0.045708 0.234609 0.504302 0.737625 0.908549 0.993787 0.976515 0.849906 0.620055 0.307536 0.052738 0.414400 0.724906 0.933384 0.999395 0.902259 0.647931 0.272238 0.161808 0.572802 0.875412 0.999235 0.906731 0.606776 0.158882 0.335350 0.752877 0.980273 0.946225 0.647225 0.157073 0.387133 0.820152 0.999350
1.000000 1.000000 1.000000 1.000000 1.000000 1.000000 1.000000 1.000000 1.000000 1.000000 1.000000 1.000000 1.000000 1.000000 1.000000 1.000000 1.000000 1.000000 1.000000 1.000000 1.000000 1.000000 1.000000 1.000000 -0.359599 -0.359599 -0.359599 -0.359599 -0.359599 -0.359599 -0.259860 -0.259860 -0.259860 -0.259860 -0.259860 -0.239367 -0.459788 -0.426744 -0.427519 -0.452064 -0.491860 -0.423017 -0.444951 -0.495155 -0.504780 -0.615074 -0.639188 -0.604905 -0.601529 -0.433394 -0.499000 -0.460121 -0.461150 -0.412704 -0.426202 -0.410869 -0.395446 -0.369695 -0.388632 -0.353462 -0.337995 -0.336429 -0.265521 -0.326804 -0.241348 -0.227273 -0.167438 -0.172469 -0.156550 -0.163722 -0.202213 -0.210565 -0.195484 -0.098745 -0.082596 -0.047462 0.036630 0.022799 0.072540 0.142915 0.183445 0.224746 0.232906 0.279426 0.328015 0.384404 0.369579 0.508819 0.505227 0.497660 0.585330 0.590252 0.706981 0.730540 0.718060 0.775143 0.767553 0.792459 0.736711 0.771337 0.771309 0.807031 0.788362 0.699385 0.790620 0.705012 0.688826 0.625853 0.525671 0.419664 0.333317 0.352372 0.311898 0.173980 0.126104 0.074226 0.101762 -0.014302 -0.153746 -0.041082 -0.040657 -0.049556 -0.224195 -0.300452 -0.291604 -0.326124 -0.326662 -0.415867 -0.167629 -0.216457 -0.169299 -0.230684 -0.260563 -0.252035 -0.144186 -0.047263 -0.029617 -0.002867 0.047818 0.077770 0.142038 0.187491 0.211582 0.212085 0.197763 0.259619 0.245621 0.169898 0.135895 0.185191 0.185839 0.163679 0.153753 0.159767 0.159531 0.155782 0.104237 0.136319 0.067685 0.060980 0.045572 -0.048770 0.031074 0.079145 0.047727 -0.015732 -0.123542 -0.138244 -0.187997 -0.107604 -0.156349 -0.171121 -0.227605 -0.241754 -0.230318 -0.150010 -0.225423 -0.245760 -0.303282 -0.312059 -0.318323 -0.308189 -0.277844 -0.235817 -0.255778 -0.293456 -0.217086 -0.264957 -0.280762 -0.258983 -0.264590 -0.381105 -0.238087 -0.206878 -0.261078 -0.175373 -0.192585 -0.331154 -0.209624 -0.194449 -0.213101 -0.202883 -0.201885 -0.168592 -0.256458 -0.169273 -0.159172 -0.201347 -0.158112 -0.100273 -0.120479 -0.119170 -0.053396 -0.072974 -0.097006 -0.097546 -0.086440 -0.099772 -0.012802 -0.065668 -0.038840 0.007711 0.041065 0.043479 0.010865 0.013550 0.033223 0.060386 0.051816 0.053026 0.073914 0.062068 0.125383 0.095993 0.095877 0.169145 0.142517 0.149782 0.113258 0.125003 0.191670 0.195334 0.179464 0.138407 0.126993 0.153765 0.164561 0.179340 0.198656 0.181948 0.182618 0.185802 0.219853 0.218406 0.218554 0.209019 0.208700 0.202874 0.210504 0.227888 0.239093 0.240092 0.240037 0.245433 0.186008 0.185718 0.250250 0.244295 0.236121 0.225717 0.239257 0.242289 0.245980 0.242354 0.232168 0.225247 0.205230 0.207286 0.171124 0.177624 0.178565 0.183055 0.183324 0.185024 0.185070 0.187897 0.179856 0.187395 0.194751 0.197167 0.188077 0.247380 0.237813 0.229818 0.224117 0.223240 0.227476 0.231306 0.238851 0.245432 0.273751 0.268507 0.260758 0.255701 0.257730 0.257449 0.257694 0.247113 0.242570 0.239289 0.233967 0.242012 0.192587 0.199192 0.200207 0.246492 0.250050 0.252416 0.253633 0.252986 0.238967 0.236560 0.236816 0.238048 0.244737 0.244969 0.244969 0.244969 0.244969 0.247668 0.247668 0.247668 0.247668 0.247668 0.249363 0.249363 0.249363 0.249363 0.244773 0.244773 0.244773 0.244773 0.233732 0.233732 0.233732 0.233732 0.233732 0.261436 0.261436 0.261436 0.261436 0.256599 0.256599 0.256599 0.256599 0.256599 0.258828 0.258828 0.258828 0.258828 0.259945 0.259945 0.259945
0.000000 0.000000 0.000000 0.000000 0.000000 0.000000 0.000000 0.000000 0.000000 0.000000 0.000000 0.000000 0.000000 0.000000 0.000000 0.000000 0.000000 0.000000 0.000000 0.000000 0.000000 0.000000 0.000000 0.000000 0.348155 0.348155 0.348155 0.348155 0.348155 0.348155 0.417029 0.417029 0.417029 0.417029 0.417029 0.417029 0.417029 0.417029 0.417029 0.417029 0.417029 0.417029 0.417029 0.417029 0.417029 0.436436 0.436436 0.436436 0.436436 0.436436 0.436436 0.417029 0.417029 0.417029 0.417029 0.417029 0.417029 0.458831 0.458831 0.458831 0.458831 0.436436 0.436436 0.436436 0.436436 0.436436 0.458831 0.458831 0.458831 0.458831 0.436436 0.436436 0.436436 0.436436 0.436436 0.436436 0.436436 0.436436 0.417029 0.417029 0.417029 0.417029 0.458831 0.458831 0.458831 0.458831 0.458831 0.458831 0.400000 0.400000 0.400000 0.400000 0.436436 0.436436 0.436436 0.436436 0.436436 0.436436 0.417029 0.417029 0.417029 0.417029 0.417029 0.417029 0.458831 0.458831 0.400000 0.400000 0.400000 0.400000 0.400000 0.400000 0.458831 0.458831 0.384900 0.384900 0.384900 0.436436 0.436436 0.371391 0.371391 0.371391 0.417029 0.417029 0.417029 0.417029 0.417029 0.417029 0.348155 0.348155 0.348155 0.400000 0.400000 0.400000 0.400000 0.400000 0.400000 0.384900 0.384900 0.384900 0.384900 0.384900 0.384900 0.371391 0.371391 0.371391 0.371391 0.371391 0.371391 0.359211 0.359211 0.359211 0.359211 0.359211 0.359211 0.359211 0.359211 0.348155 0.348155 0.348155 0.348155 0.417029 0.338062 0.338062 0.338062 0.338062 0.338062 0.338062 0.400000 0.328798 0.328798 0.328798 0.328798 0.328798 0.328798 0.400000 0.320256 0.320256 0.384900 0.312348 0.312348 0.312348 0.312348 0.384900 0.304997 0.304997 0.371391 0.304997 0.304997 0.304997 0.304997 0.371391 0.298142 0.298142 0.359211 0.291730 0.291730 0.359211 0.291730 0.291730 0.348155 0.348155 0.285714 0.285714 0.348155 0.280056 0.280056 0.338062 0.280056 0.280056 0.338062 0.338062 0.274721 0.274721 0.328798 0.328798 0.269680 0.269680 0.328798 0.264906 0.264906 0.320256 0.320256 0.320256 0.260378 0.260378 0.320256 0.312348 0.256074 0.256074 0.312348 0.312348 0.312348 0.251976 0.251976 0.304997 0.304997 0.304997 0.248069 0.248069 0.298142 0.298142 0.298142 0.244339 0.244339 0.298142 0.291730 0.291730 0.291730 0.237356 0.237356 0.291730 0.285714 0.285714 0.285714 0.285714 0.230940 0.230940 0.280056 0.280056 0.280056 0.280056 0.280056 0.274721 0.225018 0.225018 0.274721 0.274721 0.274721 0.269680 0.269680 0.269680 0.269680 0.269680 0.264906 0.264906 0.216930 0.216930 0.264906 0.264906 0.260378 0.260378 0.260378 0.260378 0.260378 0.256074 0.256074 0.256074 0.256074 0.256074 0.251976 0.251976 0.251976 0.251976 0.251976 0.248069 0.248069 0.248069 0.248069 0.248069 0.244339 0.244339 0.244339 0.244339 0.244339 0.240772 0.240772 0.240772 0.240772 0.240772 0.237356 0.237356 0.237356 0.237356 0.237356 0.234082 0.234082 0.234082 0.234082 0.234082 0.230940 0.230940 0.230940 0.230940 0.227921 0.227921 0.227921 0.227921 0.227921 0.225018 0.225018 0.225018 0.225018 0.225018 0.222222 0.222222 0.222222 0.222222 0.219529 0.219529 0.219529 0.219529 0.216930 0.216930 0.216930 0.216930 0.216930 0.214423 0.214423 0.214423 0.214423 0.212000 0.212000 0.212000 0.212000 0.212000 0.209657 0.209657 0.209657 0.209657 0.207390 0.207390 0.207390
