# Output from CTFFind version 4.1.14, run on 2024-08-30 16:05:33
# Input file: CtfFind/job005/Movies/20170629_00024_frameImage_PS.mrc ; Number of micrographs: 1
# Pixel size: 1.400 Angstroms ; acceleration voltage: 200.0 keV ; spherical aberration: 1.40 mm ; amplitude contrast: 0.10
# Box size: 512 pixels ; min. res.: 30.0 Angstroms ; max. res.: 5.0 Angstroms ; min. def.: 5000.0 um; max. def. 50000.0 um; num. frames averaged: 1
# 6 lines per micrograph: #1 - spatial frequency (1/Angstroms); #2 - 1D rotational average of spectrum (assuming no astigmatism); #3 - 1D rotational average of spectrum; #4 - CTF fit; #5 - cross-correlation between spectrum and CTF fit; #6 - 2sigma of expected cross correlation of noise
0.000000 0.001396 0.002791 0.004187 0.005582 0.006978 0.008373 0.009769 0.011164 0.012560 0.013955 0.015351 0.016746 0.018142 0.019538 0.020933 0.022329 0.023724 0.025120 0.026515 0.027911 0.029306 0.030702 0.032097 0.033493 0.034888 0.036284 0.037680 0.039075 0.040471 0.041866 0.043262 0.044657 0.046053 0.047448 0.048844 0.050239 0.051635 0.053030 0.054426 0.055822 0.057217 0.058613 0.060008 0.061404 0.062799 0.064195 0.065590 0.066986 0.068381 0.069777 0.071172 0.072568 0.073964 0.075359 0.076755 0.078150 0.079546 0.080941 0.082337 0.083732 0.085128 0.086523 0.087919 0.089314 0.090710 0.092106 0.093501 0.094897 0.096292 0.097688 0.099083 0.100479 0.101874 0.103270 0.104665 0.106061 0.107456 0.108852 0.110247 0.111643 0.113039 0.114434 0.115830 0.117225 0.118621 0.120016 0.121412 0.122807 0.124203 0.125598 0.126994 0.128389 0.129785 0.131181 0.132576 0.133972 0.135367 0.136763 0.138158 0.139554 0.140949 0.142345 0.143740 0.145136 0.146531 0.147927 0.149323 0.150718 0.152114 0.153509 0.154905 0.156300 0.157696 0.159091 0.160487 0.161882 0.163278 0.164673 0.166069 0.167465 0.168860 0.170256 0.171651 0.173047 0.174442 0.175838 0.177233 0.178629 0.180024 0.181420 0.182815 0.184211 0.185607 0.187002 0.188398 0.189793 0.191189 0.192584 0.193980 0.195375 0.196771 0.198166 0.199562 0.200957 0.202353 0.203749 0.205144 0.206540 0.207935 0.209331 0.210726 0.212122 0.213517 0.214913 0.216308 0.217704 0.219099 0.220495 0.221891 0.223286 0.224682 0.226077 0.227473 0.228868 0.230264 0.231659 0.233055 0.234450 0.235846 0.237241 0.238637 0.240033 0.241428 0.242824 0.244219 0.245615 0.247010 0.248406 0.249801 0.251197 0.252592 0.253988 0.255383 0.256779 0.258175 0.259570 0.260966 0.262361 0.263757 0.265152 0.266548 0.267943 0.269339 0.270734 0.272130 0.273525 0.274921 0.276317 0.277712 0.279108 0.280503 0.281899 0.283294 0.284690 0.286085 0.287481 0.288876 0.290272 0.291667 0.293063 0.294458 0.295854 0.297250 0.298645 0.300041 0.301436 0.302832 0.304227 0.305623 0.307018 0.308414 0.309809 0.311205 0.312600 0.313996 0.315392 0.316787 0.318183 0.319578 0.320974 0.322369 0.323765 0.325160 0.326556 0.327951 0.329347 0.330742 0.332138 0.333534 0.334929 0.336325 0.337720 0.339116 0.340511 0.341907 0.343302 0.344698 0.346093 0.347489 0.348884 0.350280 0.351676 0.353071 0.354467 0.355862 0.357258 0.358653 0.360049 0.361444 0.362840 0.364235 0.365631 0.367026 0.368422 0.369818 0.371213 0.372609 0.374004 0.375400 0.376795 0.378191 0.379586 0.380982 0.382377 0.383773 0.385168 0.386564 0.387960 0.389355 0.390751 0.392146 0.393542 0.394937 0.396333 0.397728 0.399124 0.400519 0.401915 0.403310 0.404706 0.406102 0.407497 0.408893 0.410288 0.411684 0.413079 0.414475 0.415870 0.417266 0.418661 0.420057 0.421452 0.422848 0.424244 0.425639 0.427035 0.428430 0.429826 0.431221 0.432617 0.434012 0.435408 0.436803 0.438199 0.439594 0.440990 0.442386 0.443781 0.445177 0.446572 0.447968 0.449363 0.450759 0.452154 0.453550 0.454945 0.456341 0.457736 0.459132 0.460528 0.461923 0.463319 0.464714 0.466110 0.467505 0.468901 0.470296 0.471692 0.473087 0.474483 0.475878 0.477274 0.478669 0.480065 0.481461 0.482856 0.484252 0.485647 0.487043 0.488438 0.489834 0.491229 0.492625 0.494020 0.495416 0.496811 0.498207 0.499603 0.500998 0.502394 0.503789 0.505185
      -0.15737       -0.09844       -0.04918       -0.03159       -0.02416       -0.01777       -0.01542       -0.01264       -0.01078       -0.00957       -0.00818       -0.00762       -0.00655       -0.00598       -0.00550       -0.00494       -0.00464       -0.00408       -0.00388       -0.00355       -0.00329       -0.00306       -0.00280        0.00052        0.27259       -0.06521       -0.53228       -0.94212       -0.78745       -0.53773        0.04854        0.58164        0.82244        0.52960       -0.01193       -0.52101       -0.94977       -0.83423       -0.37405        0.17882        0.51693        0.38769       -0.14917       -0.68137       -0.70930       -0.44631        0.13718        0.49909        0.22504       -0.24470       -0.48125       -0.17175        0.27016        0.30832        0.07438       -0.16848       -0.09296        0.14510        0.41106        0.17083       -0.11300       -0.16963        0.26808        0.32955        0.07973       -0.24841       -0.10343        0.10917        0.02965       -0.28961       -0.27979       -0.05692       -0.07170       -0.32654       -0.22695        0.05088        0.03626       -0.25403       -0.05553        0.21156        0.01749       -0.11096        0.11195        0.18099       -0.11271       -0.01877        0.23744       -0.05436       -0.10016        0.11019       -0.01129       -0.20586       -0.00572       -0.10681       -0.21515        0.20373        0.09500       -0.16065        0.11152       -0.03124       -0.05696        0.10906       -0.13689        0.01630        0.09168       -0.07312        0.06537        0.12271       -0.00215        0.03231       -0.02482       -0.05054        0.09100        0.01399        0.07012        0.02608       -0.00752        0.02562       -0.00608       -0.02573        0.03588        0.01270        0.03190        0.01506        0.02676        0.02938       -0.00636       -0.04724       -0.01272       -0.03456       -0.03067       -0.02675       -0.00427       -0.04214        0.04452        0.08514       -0.06302       -0.01320        0.01113        0.00146        0.00057        0.02641       -0.01849        0.02959       -0.01268        0.03046        0.00798       -0.00701        0.00972       -0.02941       -0.02624       -0.04338       -0.04398       -0.01142       -0.04591       -0.01863        0.01991        0.02875        0.06882        0.01403       -0.00378        0.00326        0.02022        0.05576        0.05031        0.03029        0.04124        0.00428        0.04630       -0.00164        0.01615       -0.03035       -0.04061       -0.03226       -0.07331       -0.03824       -0.00233       -0.03620       -0.00181       -0.02374        0.04799       -0.01926       -0.01047        0.04787        0.01130        0.04681        0.04154       -0.01149       -0.06173       -0.00191       -0.02025       -0.02693       -0.00730       -0.00697       -0.00561        0.00175        0.00002       -0.01830       -0.03080       -0.01253        0.05879        0.02763        0.01052        0.00921       -0.03249        0.00729        0.00252       -0.00978        0.02362        0.05432       -0.00540        0.03110        0.03247        0.01429       -0.01805        0.01162       -0.01922       -0.04298       -0.01236       -0.03247       -0.01292       -0.01199       -0.02715       -0.03614       -0.00062       -0.01674        0.01037        0.01929       -0.04961       -0.02368       -0.01376       -0.00870        0.00258        0.01408       -0.00979        0.00022        0.02424        0.02941        0.05355        0.01168       -0.00224        0.00552        0.02293       -0.01273        0.01918        0.04836        0.01650        0.04069       -0.01396       -0.00846       -0.00636       -0.00319        0.05141       -0.00339        0.03933       -0.01750       -0.02781       -0.03034        0.00885        0.03153        0.00685        0.01457       -0.00478        0.03202       -0.01483        0.00579       -0.00292       -0.06858       -0.05102        0.01107       -0.01489       -0.00965       -0.03841       -0.04290       -0.00242       -0.06416       -0.01809        0.01483        0.02836        0.03699        0.07016       -0.05536       -0.00932        0.01517        0.07072        0.01196        0.00257       -0.02058        0.03832       -0.01296       -0.00192        0.00167       -0.01034        0.01999        0.01861        0.01871       -0.04503        0.01768        0.01903        0.03168        0.03210       -0.01390       -0.01632       -0.02924        0.06492       -0.00229       -0.00108        0.06781       -0.02839       -0.05248        0.00385       -0.04702       -0.01450        0.00834        0.01395        0.02282        0.03392       -0.02980       -0.01712       -0.01307        0.01618       -0.02941       -0.00946       -0.07942       -0.01569        0.09135        0.06675        0.06820        0.02082       -0.00756       -0.06479       -0.01371       -0.01862       -0.06690        0.07315       -0.06007       -0.06014       -0.10213        0.00235       -0.01445        0.02449       -0.08607       -0.19437       -0.09585       -0.06234        0.03678       -0.03236        0.10611        0.06433        0.21178        0.19776        0.23462        0.09014        0.12086        0.04974        0.13653       -0.22081       -0.32265        0.09936        0.26339       -0.62797       -0.64040       -0.10710
-0.157373 -0.021891 -0.021536 -0.020943 -0.020113 -0.019045 -0.017741 -0.016199 -0.014421 -0.012405 -0.010182 -0.009305 -0.008344 -0.007299 -0.006171 -0.005157 -0.004777 -0.004372 -0.003943 -0.003510 -0.003065 -0.002598 0.016836 0.047518 0.069995 -0.203829 -0.488823 -0.605789 -0.637747 -0.436381 0.005614 0.346544 0.577194 0.435435 0.037282 -0.392769 -0.772806 -0.689903 -0.402735 0.091591 0.316404 0.275803 -0.070957 -0.488494 -0.604304 -0.431545 0.019533 0.324469 0.201218 -0.114309 -0.340466 -0.249124 0.158086 0.249082 0.134696 -0.082865 -0.079499 0.132297 0.269013 0.191771 -0.028913 -0.073696 0.161593 0.255372 0.103638 -0.121358 -0.122444 0.034136 0.021156 -0.118147 -0.262340 -0.161874 -0.104306 -0.197371 -0.205804 -0.093057 -0.024961 -0.069119 -0.080256 0.009306 0.118872 0.027493 -0.008596 0.083926 0.033888 0.077748 0.007887 0.034345 0.036384 -0.046261 0.020493 -0.026385 -0.186072 -0.099881 -0.023567 0.011857 0.045094 0.148374 -0.216444 0.022014 0.069146 -0.120324 0.036873 0.054594 -0.112677 0.154051 0.034761 -0.020494 0.144276 -0.146449 0.037265 0.061365 -0.065363 0.124416 -0.027788 0.057871 0.048275 0.024573 -0.008204 -0.025116 -0.044019 0.067293 -0.008338 0.029479 -0.021902 0.071053 0.036474 -0.054019 -0.026483 0.004193 -0.059520 -0.013425 -0.042396 -0.058127 0.033838 -0.009878 0.052097 -0.040863 0.087340 0.026299 -0.022683 -0.055730 0.056860 0.002635 0.030319 0.032241 0.010727 -0.008635 -0.047263 0.027449 -0.113236 0.046409 -0.060730 -0.054347 -0.010253 -0.000363 0.008389 0.018007 0.035265 0.039523 0.046349 -0.027828 0.043618 0.040322 -0.000960 -0.006382 0.011209 -0.017267 0.037715 0.058320 0.006567 -0.050936 0.049454 -0.022911 -0.066095 -0.066698 -0.033362 0.084082 -0.081825 0.042546 0.020077 -0.097250 0.021947 -0.007540 0.030950 0.000323 0.020222 0.057272 -0.016470 0.050721 -0.004896 -0.031817 0.025690 0.056577 0.004207 -0.019855 -0.008722 0.038394 0.031264 0.028773 -0.002868 -0.014113 0.044249 0.023887 0.020081 -0.036862 -0.028308 0.017521 0.019871 -0.073269 0.031448 0.008125 0.094962 0.100330 0.058255 -0.021155 0.000213 0.031392 0.015001 -0.095488 -0.033929 -0.006185 -0.052954 -0.013004 -0.043614 -0.068479 0.025036 0.042267 -0.002539 -0.091857 -0.049587 -0.045659 -0.008121 -0.046806 -0.041316 0.073127 -0.111679 0.036077 0.059478 0.016588 0.022229 0.024609 -0.023709 -0.013411 0.006794 -0.014185 -0.003464 0.038425 0.045193 -0.000737 -0.043553 0.010089 0.069740 0.009074 -0.083531 0.016201 0.065465 -0.083426 -0.004401 -0.009847 -0.016377 -0.060814 -0.020623 0.060896 -0.050874 -0.057970 -0.083021 0.077874 -0.147839 0.046265 0.034027 -0.016654 -0.036101 0.028110 -0.009134 -0.026301 -0.048025 -0.167237 0.018575 0.027006 0.038118 -0.017519 -0.047283 -0.048107 -0.113112 0.061623 -0.005533 0.097310 -0.013208 -0.104151 0.100075 -0.054096 -0.068265 0.007104 -0.016760 -0.048747 0.078852 -0.164490 -0.041279 -0.029490 0.071709 0.033477 0.206892 -0.101716 0.022284 0.091967 0.005507 0.038370 0.003835 0.055342 -0.043652 -0.054033 -0.152786 -0.058575 0.050965 0.112118 -0.018024 0.084509 -0.011112 -0.091775 -0.047515 -0.167505 -0.155431 0.203599 -0.166861 -0.104293 0.132231 0.042836 0.014374 -0.119695 -0.061810 -0.033573 -0.123172 -0.014653 -0.057883 0.064651 -0.109178 -0.207641 -0.036814 0.011991 0.173477 0.103276 -0.095468 -0.220800 -0.052727 -0.129272 0.311492 -0.028088 0.036546 0.088301 0.125170 0.255948 -0.017900 0.196034 0.178438 0.071986 0.187981 -0.305803 -0.521390 0.093115 0.673205 -0.266241 -0.009630
0.100000 0.105217 0.120848 0.146833 0.183038 0.229217 0.284955 0.349590 0.422131 0.501165 0.584758 0.670368 0.754778 0.834052 0.903554 0.958034 0.991796 0.998994 0.974035 0.912115 0.809868 0.666093 0.482500 0.264393 0.021160 0.233553 0.482144 0.703954 0.876852 0.979523 0.994328 0.910499 0.727221 0.456064 0.122094 0.236964 0.573971 0.838172 0.983151 0.975967 0.805871 0.490539 0.077731 0.359330 0.733440 0.960737 0.980935 0.775828 0.380542 0.117440 0.594189 0.918887 0.991049 0.775189 0.320903 0.241675 0.734757 0.988191 0.901203 0.488187 0.112709 0.678958 0.983730 0.889925 0.419145 0.240224 0.800494 0.998582 0.725096 0.094258 0.591397 0.979986 0.853775 0.261695 0.482967 0.958947 0.876579 0.265467 0.515616 0.978391 0.812170 0.106079 0.678478 0.999306 0.613761 0.220468 0.898252 0.900954 0.206245 0.657017 0.996720 0.517964 0.399717 0.981326 0.708927 0.197447 0.930519 0.806583 0.079332 0.894591 0.839112 0.053090 0.896675 0.819178 0.119473 0.935548 0.738889 0.275648 0.985492 0.572913 0.506860 0.993664 0.291676 0.768504 0.883054 0.110482 0.967218 0.576104 0.572798 0.962897 0.053098 0.932598 0.624988 0.564699 0.950891 0.039566 0.974728 0.461724 0.748936 0.818343 0.378640 0.984795 0.028897 0.975414 0.394277 0.837470 0.674910 0.626817 0.860178 0.392245 0.960735 0.168613 0.997699 0.023529 0.994517 0.174923 0.972110 0.283547 0.946655 0.350931 0.929078 0.379345 0.925231 0.370078 0.936281 0.322740 0.958751 0.235470 0.984361 0.106191 0.999673 0.065232 0.986215 0.273739 0.921698 0.505128 0.783353 0.732532 0.554220 0.914686 0.232502 0.999067 0.157583 0.932423 0.557400 0.680200 0.874448 0.252230 0.999979 0.274461 0.847506 0.751934 0.406266 0.994285 0.212758 0.854748 0.775179 0.326500 0.999592 0.389082 0.710456 0.921362 0.001612 0.916181 0.739950 0.302443 0.991147 0.550924 0.503056 0.998371 0.410370 0.611671 0.987460 0.343773 0.644632 0.985345 0.359360 0.608717 0.995412 0.455172 0.496876 0.997688 0.617669 0.293076 0.949266 0.811674 0.013060 0.790175 0.967735 0.399888 0.464970 0.979674 0.781616 0.031426 0.734324 0.994977 0.592215 0.192013 0.847127 0.969538 0.501482 0.260047 0.863303 0.971319 0.540698 0.177624 0.794854 0.996914 0.697006 0.059823 0.598779 0.972148 0.902136 0.436441 0.210343 0.761704 0.998175 0.839473 0.362478 0.242499 0.752128 0.992491 0.893953 0.503969 0.040183 0.563911 0.912180 0.993072 0.797065 0.390652 0.110146 0.575012 0.893688 0.999835 0.881293 0.576092 0.157992 0.283323 0.662216 0.913163 0.999998 0.918503 0.692621 0.366489 0.005282 0.367686 0.673165 0.887136 0.990727 0.980500 0.866510 0.668778 0.413420 0.128738 0.158100 0.423626 0.649461 0.823272 0.938493 0.993884 0.992559 0.940873 0.847252 0.721182 0.572334 0.409902 0.242041 0.075582 0.083906 0.232454 0.367297 0.486928 0.590714 0.678937 0.752309 0.812154 0.859916 0.897180 0.925585 0.946694 0.961964 0.972646 0.979844 0.984432 0.987022 0.988039 0.987668 0.985826 0.982222 0.976339 0.967411 0.954480 0.936361 0.911729 0.879132 0.837020 0.783750 0.717883 0.638113 0.543400 0.433336 0.308020 0.168556 0.016706 0.144114 0.309503 0.473669 0.629492 0.768872 0.882889 0.962342 0.998589 0.984250 0.914217 0.786706 0.604128 0.373966 0.109129 0.172329 0.447833 0.691882 0.878317 0.983541 0.989701 0.888141 0.682318 0.389445 0.040695 0.321356 0.646854 0.885805 0.996009 0.951627
1.000000 1.000000 1.000000 1.000000 1.000000 1.000000 1.000000 1.000000 1.000000 1.000000 1.000000 1.000000 1.000000 1.000000 1.000000 1.000000 1.000000 1.000000 1.000000 1.000000 1.000000 1.000000 1.000000 1.000000 -0.282338 -0.282338 -0.282338 -0.282338 -0.282338 -0.282338 -0.399533 -0.399533 -0.399533 -0.399533 -0.399533 -0.399533 -0.399533 -0.371446 -0.360375 -0.273671 -0.297185 -0.181504 -0.113536 -0.136673 -0.110016 -0.087309 -0.047728 -0.060103 -0.023433 0.077271 0.194365 0.128977 0.184964 0.207394 0.250307 0.283636 0.327890 0.442906 0.436484 0.483739 0.449543 0.381990 0.470070 0.430104 0.521185 0.531632 0.427919 0.466051 0.381871 0.385560 0.373761 0.385638 0.379149 0.401641 0.366644 0.268638 0.166808 0.204901 0.023988 0.005712 0.016356 0.131862 0.113982 0.090347 -0.000660 -0.034757 -0.041025 -0.073029 -0.071844 0.149440 0.229239 0.234569 0.378146 0.387964 0.315613 0.345125 0.392300 0.519887 0.528408 0.610497 0.612307 0.635827 0.620420 0.562759 0.514548 0.632074 0.608447 0.578565 0.697906 0.664773 0.621239 0.661530 0.580102 0.438858 0.471655 0.407608 0.403469 0.333749 0.264319 0.335184 0.265527 0.240043 0.275823 0.173350 0.187559 0.163325 0.080077 0.170468 0.075192 0.016679 0.085188 0.104862 0.083774 0.018833 -0.049206 -0.006444 -0.042915 -0.036741 0.000167 -0.082353 -0.091140 -0.139593 -0.315942 -0.245232 -0.164908 -0.353145 -0.436180 -0.378956 -0.301376 -0.311453 -0.317434 -0.316709 -0.292986 -0.298917 -0.292211 -0.234149 -0.236472 -0.319438 -0.391011 -0.390114 -0.371231 -0.327417 -0.395864 -0.476579 -0.525000 -0.516407 -0.538826 -0.546662 -0.544146 -0.536199 -0.541804 -0.575432 -0.405802 -0.584097 -0.494744 -0.438363 -0.417550 -0.617064 -0.355339 -0.306715 -0.306669 -0.376980 -0.427039 -0.412903 -0.550693 -0.432452 -0.419173 -0.490438 -0.435197 -0.438348 -0.449342 -0.493362 -0.462190 -0.551421 -0.528249 -0.380747 -0.432399 -0.420707 -0.407608 -0.361823 -0.369649 -0.359368 -0.359268 -0.215520 -0.367275 -0.370287 -0.079245 -0.318961 -0.283220 -0.194425 -0.247718 -0.288353 -0.294570 -0.343187 -0.234436 -0.179182 -0.324145 -0.154950 -0.126220 -0.354442 -0.359090 -0.161022 -0.140283 -0.196298 -0.121917 -0.133730 -0.175893 -0.133920 -0.081839 -0.076029 -0.084969 -0.075295 -0.016056 -0.016419 0.060657 0.077049 0.034065 0.036108 0.059542 0.086871 0.103163 0.064530 0.074098 0.045392 0.053290 0.079891 0.122353 0.159650 0.189330 0.176031 0.269507 0.186688 0.175578 0.309276 0.295535 0.324073 0.167938 0.139606 0.302073 0.305921 0.417165 0.426342 0.222795 0.234981 0.438896 0.423117 0.410310 0.380832 0.387760 0.391841 0.280803 0.270489 0.394667 0.370620 0.380457 0.381700 0.377144 0.370854 0.290138 0.290846 0.326790 0.308622 0.297881 0.288390 0.278281 0.249081 0.234232 0.234386 0.229855 0.257801 0.260094 0.206190 0.196918 0.178245 0.180649 0.181421 0.179044 0.179645 0.179701 0.179741 0.181243 0.161951 0.162671 0.168341 0.172594 0.173145 0.170701 0.202241 0.197625 0.191369 0.188056 0.189569 0.192099 0.151914 0.156538 0.159821 0.159625 0.172239 0.166332 0.162393 0.160962 0.161039 0.163687 0.163709 0.181565 0.127189 0.127116 0.151458 0.151458 0.151458 0.151458 0.151458 0.153427 0.153427 0.153427 0.153427 0.153427 0.156430 0.156430 0.156430 0.156430 0.157883 0.157883 0.157883 0.157883 0.157883 0.152595 0.152595 0.152595 0.152595 0.152595 0.183396 0.183396 0.183396 0.183396 0.184969 0.184969 0.184969 0.184969 0.184969 0.186792 0.186792 0.186792
0.000000 0.000000 0.000000 0.000000 0.000000 0.000000 0.000000 0.000000 0.000000 0.000000 0.000000 0.000000 0.000000 0.000000 0.000000 0.000000 0.000000 0.000000 0.000000 0.000000 0.000000 0.000000 0.000000 0.000000 0.348155 0.348155 0.348155 0.348155 0.348155 0.348155 0.384900 0.384900 0.384900 0.384900 0.384900 0.384900 0.384900 0.384900 0.384900 0.417029 0.417029 0.417029 0.417029 0.417029 0.417029 0.417029 0.436436 0.436436 0.436436 0.436436 0.436436 0.436436 0.417029 0.417029 0.417029 0.417029 0.417029 0.417029 0.436436 0.436436 0.436436 0.436436 0.436436 0.458831 0.458831 0.458831 0.458831 0.417029 0.417029 0.417029 0.417029 0.417029 0.436436 0.436436 0.436436 0.436436 0.436436 0.436436 0.436436 0.436436 0.458831 0.458831 0.458831 0.417029 0.417029 0.417029 0.417029 0.458831 0.458831 0.458831 0.400000 0.400000 0.400000 0.400000 0.436436 0.436436 0.436436 0.436436 0.436436 0.436436 0.417029 0.417029 0.417029 0.417029 0.417029 0.417029 0.400000 0.400000 0.400000 0.458831 0.458831 0.400000 0.400000 0.400000 0.384900 0.384900 0.384900 0.436436 0.436436 0.371391 0.371391 0.371391 0.436436 0.436436 0.371391 0.371391 0.371391 0.417029 0.417029 0.417029 0.417029 0.348155 0.348155 0.348155 0.400000 0.400000 0.400000 0.400000 0.400000 0.400000 0.384900 0.384900 0.328798 0.328798 0.328798 0.384900 0.384900 0.371391 0.371391 0.371391 0.371391 0.371391 0.371391 0.359211 0.359211 0.359211 0.359211 0.359211 0.359211 0.359211 0.359211 0.436436 0.348155 0.348155 0.348155 0.348155 0.338062 0.338062 0.338062 0.338062 0.338062 0.338062 0.400000 0.328798 0.328798 0.328798 0.328798 0.400000 0.320256 0.320256 0.320256 0.320256 0.320256 0.320256 0.384900 0.312348 0.312348 0.384900 0.304997 0.304997 0.304997 0.304997 0.371391 0.304997 0.304997 0.371391 0.298142 0.298142 0.298142 0.298142 0.359211 0.291730 0.291730 0.359211 0.285714 0.285714 0.348155 0.285714 0.285714 0.348155 0.348155 0.280056 0.280056 0.338062 0.274721 0.274721 0.338062 0.274721 0.274721 0.328798 0.328798 0.269680 0.269680 0.328798 0.264906 0.264906 0.320256 0.320256 0.260378 0.260378 0.320256 0.320256 0.256074 0.256074 0.312348 0.312348 0.256074 0.256074 0.312348 0.304997 0.304997 0.248069 0.248069 0.304997 0.304997 0.298142 0.244339 0.244339 0.298142 0.298142 0.298142 0.240772 0.240772 0.291730 0.291730 0.291730 0.237356 0.237356 0.285714 0.285714 0.285714 0.285714 0.230940 0.230940 0.280056 0.280056 0.280056 0.280056 0.280056 0.274721 0.225018 0.225018 0.274721 0.274721 0.274721 0.269680 0.269680 0.269680 0.219529 0.219529 0.269680 0.264906 0.264906 0.264906 0.264906 0.264906 0.260378 0.260378 0.260378 0.212000 0.212000 0.260378 0.256074 0.256074 0.256074 0.256074 0.256074 0.251976 0.251976 0.251976 0.251976 0.251976 0.248069 0.248069 0.248069 0.248069 0.248069 0.244339 0.244339 0.244339 0.244339 0.244339 0.240772 0.240772 0.240772 0.240772 0.240772 0.237356 0.237356 0.237356 0.237356 0.237356 0.234082 0.234082 0.234082 0.234082 0.234082 0.230940 0.230940 0.230940 0.230940 0.230940 0.227921 0.227921 0.227921 0.227921 0.227921 0.225018 0.225018 0.225018 0.225018 0.222222 0.222222 0.222222 0.222222 0.222222 0.219529 0.219529 0.219529 0.219529 0.219529 0.216930 0.216930 0.216930 0.216930 0.214423 0.214423 0.214423 0.214423 0.214423 0.212000 0.212000 0.212000
