# Output from CTFFind version 4.1.14, run on 2024-08-30 16:05:32
# Input file: CtfFind/job005/Movies/20170629_00048_frameImage_PS.mrc ; Number of micrographs: 1
# Pixel size: 1.400 Angstroms ; acceleration voltage: 200.0 keV ; spherical aberration: 1.40 mm ; amplitude contrast: 0.10
# Box size: 512 pixels ; min. res.: 30.0 Angstroms ; max. res.: 5.0 Angstroms ; min. def.: 5000.0 um; max. def. 50000.0 um; num. frames averaged: 1
# 6 lines per micrograph: #1 - spatial frequency (1/Angstroms); #2 - 1D rotational average of spectrum (assuming no astigmatism); #3 - 1D rotational average of spectrum; #4 - CTF fit; #5 - cross-correlation between spectrum and CTF fit; #6 - 2sigma of expected cross correlation of noise
0.000000 0.001396 0.002791 0.004187 0.005582 0.006978 0.008373 0.009769 0.011164 0.012560 0.013955 0.015351 0.016746 0.018142 0.019538 0.020933 0.022329 0.023724 0.025120 0.026515 0.027911 0.029306 0.030702 0.032097 0.033493 0.034888 0.036284 0.037680 0.039075 0.040471 0.041866 0.043262 0.044657 0.046053 0.047448 0.048844 0.050239 0.051635 0.053030 0.054426 0.055822 0.057217 0.058613 0.060008 0.061404 0.062799 0.064195 0.065590 0.066986 0.068381 0.069777 0.071172 0.072568 0.073964 0.075359 0.076755 0.078150 0.079546 0.080941 0.082337 0.083732 0.085128 0.086523 0.087919 0.089314 0.090710 0.092106 0.093501 0.094897 0.096292 0.097688 0.099083 0.100479 0.101874 0.103270 0.104665 0.106061 0.107456 0.108852 0.110247 0.111643 0.113039 0.114434 0.115830 0.117225 0.118621 0.120016 0.121412 0.122807 0.124203 0.125598 0.126994 0.128389 0.129785 0.131181 0.132576 0.133972 0.135367 0.136763 0.138158 0.139554 0.140949 0.142345 0.143740 0.145136 0.146531 0.147927 0.149323 0.150718 0.152114 0.153509 0.154905 0.156300 0.157696 0.159091 0.160487 0.161882 0.163278 0.164673 0.166069 0.167465 0.168860 0.170256 0.171651 0.173047 0.174442 0.175838 0.177233 0.178629 0.180024 0.181420 0.182815 0.184211 0.185607 0.187002 0.188398 0.189793 0.191189 0.192584 0.193980 0.195375 0.196771 0.198166 0.199562 0.200957 0.202353 0.203749 0.205144 0.206540 0.207935 0.209331 0.210726 0.212122 0.213517 0.214913 0.216308 0.217704 0.219099 0.220495 0.221891 0.223286 0.224682 0.226077 0.227473 0.228868 0.230264 0.231659 0.233055 0.234450 0.235846 0.237241 0.238637 0.240033 0.241428 0.242824 0.244219 0.245615 0.247010 0.248406 0.249801 0.251197 0.252592 0.253988 0.255383 0.256779 0.258175 0.259570 0.260966 0.262361 0.263757 0.265152 0.266548 0.267943 0.269339 0.270734 0.272130 0.273525 0.274921 0.276317 0.277712 0.279108 0.280503 0.281899 0.283294 0.284690 0.286085 0.287481 0.288876 0.290272 0.291667 0.293063 0.294458 0.295854 0.297250 0.298645 0.300041 0.301436 0.302832 0.304227 0.305623 0.307018 0.308414 0.309809 0.311205 0.312600 0.313996 0.315392 0.316787 0.318183 0.319578 0.320974 0.322369 0.323765 0.325160 0.326556 0.327951 0.329347 0.330742 0.332138 0.333534 0.334929 0.336325 0.337720 0.339116 0.340511 0.341907 0.343302 0.344698 0.346093 0.347489 0.348884 0.350280 0.351676 0.353071 0.354467 0.355862 0.357258 0.358653 0.360049 0.361444 0.362840 0.364235 0.365631 0.367026 0.368422 0.369818 0.371213 0.372609 0.374004 0.375400 0.376795 0.378191 0.379586 0.380982 0.382377 0.383773 0.385168 0.386564 0.387960 0.389355 0.390751 0.392146 0.393542 0.394937 0.396333 0.397728 0.399124 0.400519 0.401915 0.403310 0.404706 0.406102 0.407497 0.408893 0.410288 0.411684 0.413079 0.414475 0.415870 0.417266 0.418661 0.420057 0.421452 0.422848 0.424244 0.425639 0.427035 0.428430 0.429826 0.431221 0.432617 0.434012 0.435408 0.436803 0.438199 0.439594 0.440990 0.442386 0.443781 0.445177 0.446572 0.447968 0.449363 0.450759 0.452154 0.453550 0.454945 0.456341 0.457736 0.459132 0.460528 0.461923 0.463319 0.464714 0.466110 0.467505 0.468901 0.470296 0.471692 0.473087 0.474483 0.475878 0.477274 0.478669 0.480065 0.481461 0.482856 0.484252 0.485647 0.487043 0.488438 0.489834 0.491229 0.492625 0.494020 0.495416 0.496811 0.498207 0.499603 0.500998 0.502394 0.503789 0.505185
      -0.10644       -0.07541       -0.04946       -0.04019       -0.03628       -0.03292       -0.03168       -0.03022       -0.02924       -0.02860       -0.02787       -0.02757       -0.02701       -0.02671       -0.02646       -0.02616       -0.02600       -0.02571       -0.02560       -0.02543       -0.02529       -0.02517       -0.02503       -0.02274        0.38994        0.09213       -0.47922       -0.87580       -0.85963       -0.66108       -0.50932       -0.02302        0.53540        0.71158        0.26307       -0.05185       -0.52446       -0.67695       -0.67713       -0.38443        0.06776        0.53075        0.19648       -0.26460       -0.53121       -0.55500       -0.27194        0.20650        0.37883        0.12078       -0.20239       -0.30876       -0.29972        0.22060        0.47237        0.30088       -0.12417       -0.28060        0.14602        0.38762        0.22014       -0.14756       -0.25916       -0.10222        0.15481       -0.00286       -0.33917       -0.24244        0.05601        0.14865       -0.17267       -0.37289       -0.12913        0.17009       -0.13627       -0.39776       -0.05148        0.14242       -0.01381       -0.25504       -0.02185        0.20922       -0.18078       -0.21701        0.20625        0.07302       -0.22716       -0.07548        0.16620       -0.10563       -0.17781        0.14631        0.01614       -0.15343        0.14668        0.10923       -0.13884        0.07772        0.06830       -0.18651        0.13068        0.04164       -0.17985        0.08770       -0.03805       -0.14848        0.10163       -0.06967       -0.04901        0.16258       -0.16568       -0.00666       -0.03749       -0.11671        0.08350        0.00396       -0.09388       -0.00570       -0.03452        0.02307        0.05667        0.02452       -0.02140       -0.01081       -0.03850       -0.07978       -0.07218       -0.03902       -0.11072        0.00788       -0.04582       -0.06478       -0.05748       -0.07523       -0.04843       -0.08283       -0.03303        0.04607        0.01799        0.00387        0.03005        0.03885        0.01265        0.00986        0.01329        0.00631        0.00723        0.00805       -0.02062       -0.05830       -0.05578       -0.05823       -0.01750       -0.06083       -0.05213       -0.02525       -0.02936       -0.04635       -0.06855       -0.05256       -0.00947       -0.06947        0.00344       -0.02535       -0.01911       -0.00284       -0.00235       -0.05421        0.00354        0.00207        0.01388        0.02555       -0.00714        0.00864       -0.02032       -0.01956       -0.01220       -0.03751        0.00309       -0.02665       -0.02290        0.01058       -0.04263       -0.03650       -0.00084       -0.02483       -0.00238       -0.03249       -0.06944       -0.07486       -0.04988       -0.00623       -0.01114       -0.05282        0.00493       -0.05062       -0.04100       -0.01788       -0.02202       -0.04581       -0.07434        0.00346       -0.00856       -0.02901       -0.04422       -0.00923       -0.00541       -0.01142       -0.02322        0.00059        0.03241       -0.01007       -0.02008       -0.05920       -0.05735        0.03484       -0.00409       -0.03212        0.00412       -0.01682       -0.01203       -0.06835       -0.06554       -0.03408       -0.06019       -0.01858       -0.03804       -0.00428       -0.03586       -0.05598       -0.00536       -0.00473       -0.02845       -0.02378        0.02846        0.00218       -0.04741       -0.05305       -0.01740       -0.01328       -0.04434       -0.01505       -0.01781       -0.03431       -0.00586       -0.05964       -0.03382       -0.00605       -0.00424        0.02203       -0.00532       -0.00948       -0.03419        0.00557       -0.00547       -0.04494       -0.03650        0.02363        0.03994       -0.00478       -0.02985       -0.04965       -0.03024       -0.03962       -0.06783       -0.02840       -0.06254       -0.06254       -0.03687       -0.02426       -0.03232       -0.04867       -0.06729       -0.07290       -0.07226       -0.07225       -0.00625       -0.06976        0.01221       -0.00260       -0.02676        0.01356       -0.03089       -0.03480       -0.00874       -0.00441        0.03028        0.00145       -0.08893        0.00154       -0.02891       -0.05568        0.02531       -0.00424       -0.02071       -0.01119       -0.04882       -0.04767        0.02528        0.01374        0.07398       -0.00424        0.00460       -0.02491       -0.09507       -0.10496        0.00528        0.02746       -0.04775       -0.00052       -0.00752        0.00166       -0.03237       -0.05247       -0.02457       -0.09842        0.01981       -0.04388       -0.07696       -0.02709        0.02793       -0.02955       -0.07782        0.02212        0.10437        0.00397        0.06255        0.01591       -0.08010        0.02540        0.06178        0.00480       -0.08089       -0.03650       -0.08252       -0.08269       -0.09284       -0.01826       -0.03674       -0.10002       -0.05883       -0.07414        0.04057       -0.05049       -0.03620        0.03594        0.03713       -0.04373       -0.02023       -0.13353       -0.10292       -0.06817       -0.01998        0.09279       -0.01926        0.11194       -0.03144        0.00045       -0.31208       -0.18133        0.33363        0.36086        0.36690
-0.106443 -0.035115 -0.034927 -0.034612 -0.034171 -0.033605 -0.032913 -0.032095 -0.031151 -0.030081 -0.028942 -0.028470 -0.027954 -0.027393 -0.026788 -0.026270 -0.026071 -0.025859 -0.025634 -0.025468 -0.025324 -0.025173 0.022344 0.090995 0.127683 -0.139670 -0.417928 -0.585655 -0.718356 -0.640380 -0.406445 -0.057417 0.381665 0.438842 0.323364 -0.051334 -0.408143 -0.594897 -0.575532 -0.401896 0.042710 0.256766 0.234000 -0.172600 -0.439380 -0.504438 -0.310390 0.130058 0.298510 0.149525 -0.135048 -0.303006 -0.289448 0.143984 0.429473 0.314085 -0.059493 -0.224174 0.075557 0.345183 0.237704 -0.066688 -0.246981 -0.149843 0.121185 0.064021 -0.313968 -0.319860 -0.018394 0.143170 -0.084556 -0.364847 -0.242534 0.155775 -0.027933 -0.413855 -0.136618 0.173847 0.024664 -0.329358 -0.107094 0.243744 -0.088603 -0.318060 0.210993 0.209473 -0.228801 -0.222474 0.195081 -0.017814 -0.232711 0.146406 0.122269 -0.264169 0.123620 0.219605 -0.251527 -0.023629 0.238866 -0.278407 0.051984 0.266696 -0.348952 0.049338 0.195470 -0.399640 0.295879 -0.013189 -0.301488 0.375596 -0.180905 -0.143268 0.232374 -0.387253 0.189983 0.097017 -0.245731 0.228229 -0.241859 0.123087 0.044077 -0.080691 0.154530 -0.167844 0.063499 -0.112065 -0.066874 -0.092647 -0.087944 0.061062 -0.116291 0.029353 -0.119894 -0.072822 -0.058814 -0.034019 -0.022582 0.037101 -0.049024 0.111083 -0.017014 0.006827 -0.022147 0.043476 0.019341 -0.013081 -0.017447 0.021122 -0.015154 -0.003300 -0.094429 0.029129 -0.102115 -0.070982 -0.000204 -0.078085 0.050018 -0.055226 -0.139451 -0.006352 -0.078889 -0.064903 -0.057674 0.031732 -0.065740 -0.021113 -0.013931 -0.020590 -0.019849 -0.014748 0.050425 -0.002421 -0.024752 0.007625 0.006893 -0.047811 -0.014013 -0.008905 -0.044252 -0.035512 -0.002331 -0.032119 0.021664 -0.037277 -0.037008 -0.019675 -0.041195 0.052260 -0.109381 -0.059639 -0.096324 0.004630 0.013610 -0.005347 -0.087509 -0.102242 -0.080252 0.002912 -0.086241 -0.012338 -0.065264 -0.070867 0.001135 -0.001751 -0.051117 0.028478 -0.010771 0.084236 -0.062789 0.098284 0.034346 -0.033888 -0.011513 -0.044086 -0.060986 -0.025168 0.010699 -0.042152 -0.065766 -0.069748 0.037562 -0.083755 -0.033791 -0.113918 -0.043872 -0.030156 -0.069331 -0.096702 -0.087464 -0.047231 -0.015694 -0.029419 -0.057764 -0.051315 0.035073 0.000283 0.073975 -0.022674 -0.062864 0.002659 0.090963 -0.014148 -0.018220 0.046532 -0.021353 0.008218 -0.040799 -0.021828 0.006075 0.052581 0.048314 0.037181 -0.064708 0.059431 0.000624 -0.032104 0.103804 -0.029778 -0.035172 0.041928 0.051637 -0.057723 -0.028555 -0.039736 0.008963 -0.107172 -0.052620 -0.043448 -0.074660 -0.060694 -0.012498 0.021939 -0.120054 -0.116406 -0.063258 -0.055155 -0.024903 -0.052688 -0.109946 -0.113901 0.082597 -0.097458 0.027862 0.150916 -0.106130 0.125073 -0.034104 -0.010664 0.059195 -0.030967 -0.030599 0.044771 -0.052715 -0.020430 -0.071444 -0.122832 0.016252 0.003599 0.022270 0.154832 0.035778 -0.005409 0.066412 0.223202 -0.173403 0.034074 -0.152355 0.038787 -0.110156 -0.060434 0.004234 0.202243 0.026977 -0.291173 -0.188483 -0.085497 0.042280 -0.107001 0.026181 -0.072762 -0.068940 -0.065188 -0.192171 0.018462 0.023195 -0.013612 0.385399 -0.063597 0.018757 -0.114963 0.139155 0.263331 0.036041 -0.015034 0.055809 -0.146872 -0.121417 -0.015305 -0.114305 -0.004618 0.042610 0.138008 -0.000544 -0.155070 0.273211 -0.086049 -0.068287 -0.070041 -0.234211 -0.117470 -0.115768 0.186334 -0.243841 -0.360917 -0.025044 0.560086 -0.085529 0.033136 -0.064606 -0.891925 -0.452671 0.484400 0.000000
0.100000 0.105122 0.120469 0.145982 0.181534 0.226890 0.281654 0.345197 0.416577 0.494449 0.576976 0.661740 0.745676 0.825030 0.895368 0.951647 0.988371 0.999852 0.980579 0.925717 0.831702 0.696936 0.522496 0.312806 0.076152 0.175075 0.424561 0.652787 0.838391 0.960189 0.999789 0.944595 0.790825 0.546076 0.230809 0.121830 0.468377 0.759829 0.948645 0.997243 0.886673 0.623653 0.243956 0.189635 0.595825 0.889414 0.999978 0.890845 0.573391 0.111585 0.386895 0.793538 0.992247 0.915016 0.569128 0.045076 0.501659 0.894077 0.991988 0.746500 0.229149 0.380765 0.853511 0.995567 0.733917 0.160605 0.489656 0.930187 0.949994 0.522292 0.163624 0.776116 0.998647 0.699157 0.019450 0.678359 0.998746 0.741623 0.039880 0.693189 0.999938 0.669470 0.102711 0.813107 0.972411 0.451458 0.397451 0.962494 0.812275 0.040362 0.769124 0.972587 0.387512 0.523040 0.998086 0.616282 0.309627 0.964559 0.743779 0.169738 0.928358 0.796857 0.117335 0.919742 0.792091 0.155216 0.944490 0.727883 0.281349 0.984718 0.585253 0.484305 0.997141 0.337433 0.729011 0.914215 0.027674 0.938755 0.660275 0.470892 0.990066 0.196804 0.864222 0.748786 0.403730 0.993203 0.171358 0.899996 0.659245 0.558217 0.941574 0.104664 0.992347 0.335778 0.851982 0.681365 0.591224 0.898707 0.281558 0.991968 0.021755 0.987171 0.284969 0.918072 0.493651 0.816789 0.647036 0.709176 0.752119 0.613644 0.818638 0.541975 0.855773 0.500920 0.870049 0.493613 0.864365 0.520553 0.837563 0.579738 0.784635 0.666042 0.697451 0.770062 0.566313 0.876468 0.382723 0.962888 0.143487 0.999988 0.143673 0.954440 0.454384 0.795964 0.743658 0.509080 0.947288 0.108159 0.992904 0.349079 0.823210 0.758310 0.428969 0.986114 0.119164 0.914920 0.660357 0.508934 0.978310 0.126050 0.891034 0.735006 0.371760 0.999976 0.367828 0.717887 0.921949 0.015026 0.905833 0.764044 0.256560 0.981629 0.607651 0.432225 0.999440 0.499909 0.520642 0.999266 0.462328 0.532574 0.999725 0.500601 0.469895 0.996976 0.608604 0.324423 0.965024 0.764644 0.085407 0.858314 0.921786 0.242835 0.623019 0.999949 0.614569 0.225553 0.894505 0.918360 0.298467 0.521250 0.983736 0.794964 0.095812 0.657555 0.998793 0.734721 0.040006 0.671175 0.997648 0.772273 0.134363 0.567479 0.971690 0.886565 0.370699 0.315491 0.848075 0.992371 0.699339 0.110862 0.516667 0.927519 0.968328 0.638304 0.075348 0.507410 0.904610 0.988963 0.746151 0.268412 0.285556 0.745737 0.982699 0.940273 0.643449 0.182744 0.316708 0.730535 0.965354 0.977075 0.775121 0.413851 0.024389 0.449646 0.782824 0.969435 0.986134 0.840694 0.566389 0.213120 0.162762 0.507872 0.778895 0.947085 0.999883 0.939925 0.782321 0.550831 0.273767 0.019770 0.302980 0.553802 0.755918 0.899349 0.980019 0.999074 0.961761 0.876179 0.752159 0.600134 0.430355 0.252230 0.073896 0.098081 0.258558 0.404133 0.532637 0.643104 0.735604 0.810954 0.870514 0.915959 0.949220 0.972306 0.987144 0.995591 0.999352 0.999914 0.998563 0.996360 0.994130 0.992469 0.991759 0.992131 0.993518 0.995612 0.997899 0.999626 0.999824 0.997300 0.990658 0.978312 0.958501 0.929346 0.888971 0.835480 0.767102 0.682557 0.580705 0.461290 0.324818 0.172834 0.008170 0.165091 0.341294 0.513467 0.673186 0.811211 0.917741 0.983130 0.998804 0.958188 0.857824 0.698341 0.485411 0.230145 0.050658 0.335208 0.598315 0.812882 0.953647 0.999825 0.938956
1.000000 1.000000 1.000000 1.000000 1.000000 1.000000 1.000000 1.000000 1.000000 1.000000 1.000000 1.000000 1.000000 1.000000 1.000000 1.000000 1.000000 1.000000 1.000000 1.000000 1.000000 1.000000 1.000000 1.000000 -0.696958 -0.696958 -0.696958 -0.696958 -0.696958 -0.696958 -0.681103 -0.681103 -0.681103 -0.681103 -0.681103 -0.681103 -0.681103 -0.687421 -0.671955 -0.649103 -0.669922 -0.664055 -0.645141 -0.622765 -0.618139 -0.671014 -0.672292 -0.684965 -0.673708 -0.621442 -0.601375 -0.571287 -0.610880 -0.616543 -0.626990 -0.588242 -0.566297 -0.483009 -0.495709 -0.503978 -0.439404 -0.427346 -0.443147 -0.372740 -0.369639 -0.373458 -0.370752 -0.327869 -0.308876 -0.330308 -0.295688 -0.319778 -0.224812 -0.213092 -0.204902 -0.225919 -0.183460 -0.133080 -0.217248 -0.155872 -0.105701 -0.122647 -0.105367 -0.050918 -0.027027 0.011167 0.048668 0.068906 0.125953 0.152601 0.270703 0.321017 0.351390 0.431346 0.458442 0.466131 0.536152 0.517591 0.650796 0.663214 0.696044 0.713998 0.768650 0.750852 0.816081 0.834574 0.842779 0.767310 0.773891 0.777856 0.797652 0.778562 0.692293 0.604452 0.601868 0.531373 0.477089 0.409639 0.419599 0.354343 0.196155 0.159120 0.160198 0.030385 -0.044354 0.189799 0.210972 0.209854 -0.003737 -0.021919 0.237554 0.213146 0.173412 0.153548 0.107761 0.078665 0.078262 0.121604 0.145450 0.115401 0.082067 0.073118 0.182879 0.236321 0.273802 0.346999 0.388244 0.372458 0.363143 0.405457 0.412884 0.368483 0.335322 0.250433 0.235760 0.071649 0.011461 -0.031208 -0.048752 -0.087387 -0.089450 -0.114039 -0.200947 -0.166457 -0.149108 -0.149671 -0.180028 -0.192420 -0.122573 -0.107057 -0.223425 -0.150360 -0.188071 -0.207805 -0.253902 -0.315977 -0.295204 -0.265575 -0.300610 -0.359532 -0.374280 -0.350184 -0.360961 -0.392479 -0.362182 -0.423025 -0.405848 -0.417416 -0.394612 -0.478864 -0.432032 -0.428706 -0.401164 -0.387009 -0.451275 -0.349414 -0.379535 -0.483060 -0.365581 -0.329938 -0.518636 -0.299806 -0.305465 -0.388271 -0.375033 -0.350189 -0.307183 -0.295127 -0.348224 -0.283749 -0.233246 -0.358544 -0.326855 -0.198768 -0.193044 -0.107075 -0.168009 -0.167890 -0.025977 -0.161224 -0.157359 0.001549 -0.149651 -0.156311 0.107561 0.089422 -0.070876 -0.058966 0.009150 0.032490 -0.027096 -0.005957 0.047805 0.049151 0.023941 0.046864 0.105814 0.035060 0.077607 0.062807 0.058737 0.079885 0.111189 0.104156 0.083648 0.108500 0.118651 0.125798 0.125321 0.141461 0.165710 0.118354 0.107139 0.114172 0.095349 0.102153 0.138917 0.130241 0.044491 0.043255 0.091830 0.069622 0.164287 0.170235 0.090288 0.091924 0.100366 0.098995 0.197065 0.171906 0.120142 0.197782 0.189283 0.195292 0.208948 0.097134 0.085259 0.279960 0.285392 0.294937 0.304484 0.302251 0.296009 0.084788 0.120439 0.242299 0.242357 0.235882 0.274933 0.257559 0.246920 0.240800 0.209538 0.208247 0.163835 0.163591 0.220696 0.211449 0.209403 0.208647 0.199098 0.199501 0.196775 0.191632 0.189080 0.189775 0.189073 0.192039 0.191950 0.198211 0.200538 0.204628 0.204981 0.203324 0.200251 0.214734 0.245800 0.245800 0.187561 0.192082 0.197088 0.199401 0.202227 0.201903 0.198749 0.214628 0.229630 0.229967 0.229967 0.229967 0.233450 0.233450 0.233450 0.233450 0.233450 0.228995 0.228995 0.228995 0.228995 0.228995 0.235817 0.235817 0.235817 0.235817 0.235817 0.236688 0.236688 0.236688 0.236688 0.239854 0.239854 0.239854 0.239854 0.239854 0.239203 0.239203 0.239203 0.239203 0.239203 0.237057 0.237057 0.237057 0.237057
0.000000 0.000000 0.000000 0.000000 0.000000 0.000000 0.000000 0.000000 0.000000 0.000000 0.000000 0.000000 0.000000 0.000000 0.000000 0.000000 0.000000 0.000000 0.000000 0.000000 0.000000 0.000000 0.000000 0.000000 0.348155 0.348155 0.348155 0.348155 0.348155 0.348155 0.384900 0.384900 0.384900 0.384900 0.384900 0.384900 0.384900 0.384900 0.384900 0.400000 0.400000 0.400000 0.400000 0.400000 0.400000 0.400000 0.400000 0.436436 0.436436 0.436436 0.436436 0.436436 0.436436 0.458831 0.458831 0.458831 0.458831 0.458831 0.436436 0.436436 0.436436 0.436436 0.436436 0.436436 0.436436 0.436436 0.436436 0.436436 0.458831 0.458831 0.458831 0.458831 0.400000 0.400000 0.400000 0.400000 0.400000 0.458831 0.458831 0.458831 0.417029 0.417029 0.417029 0.417029 0.417029 0.417029 0.417029 0.417029 0.458831 0.458831 0.458831 0.400000 0.400000 0.400000 0.400000 0.436436 0.436436 0.436436 0.436436 0.436436 0.436436 0.417029 0.417029 0.417029 0.417029 0.417029 0.417029 0.400000 0.400000 0.400000 0.458831 0.458831 0.400000 0.400000 0.400000 0.384900 0.384900 0.384900 0.436436 0.436436 0.371391 0.371391 0.371391 0.436436 0.436436 0.371391 0.371391 0.371391 0.417029 0.417029 0.359211 0.359211 0.359211 0.400000 0.400000 0.400000 0.400000 0.400000 0.400000 0.338062 0.338062 0.338062 0.384900 0.384900 0.384900 0.384900 0.384900 0.384900 0.371391 0.371391 0.371391 0.371391 0.371391 0.371391 0.359211 0.359211 0.359211 0.359211 0.359211 0.359211 0.359211 0.359211 0.348155 0.348155 0.348155 0.348155 0.348155 0.348155 0.338062 0.338062 0.417029 0.338062 0.338062 0.328798 0.328798 0.328798 0.328798 0.400000 0.328798 0.328798 0.320256 0.320256 0.320256 0.320256 0.384900 0.312348 0.312348 0.312348 0.312348 0.384900 0.304997 0.304997 0.304997 0.304997 0.371391 0.304997 0.304997 0.371391 0.298142 0.298142 0.359211 0.291730 0.291730 0.359211 0.291730 0.291730 0.285714 0.285714 0.348155 0.285714 0.285714 0.348155 0.348155 0.280056 0.280056 0.338062 0.274721 0.274721 0.338062 0.274721 0.274721 0.328798 0.269680 0.269680 0.328798 0.328798 0.264906 0.264906 0.320256 0.320256 0.260378 0.260378 0.320256 0.320256 0.256074 0.256074 0.312348 0.312348 0.256074 0.256074 0.312348 0.304997 0.251976 0.251976 0.304997 0.304997 0.248069 0.248069 0.298142 0.298142 0.298142 0.244339 0.244339 0.298142 0.291730 0.291730 0.237356 0.237356 0.291730 0.291730 0.285714 0.285714 0.234082 0.234082 0.285714 0.285714 0.280056 0.280056 0.227921 0.227921 0.280056 0.280056 0.274721 0.274721 0.274721 0.225018 0.225018 0.274721 0.269680 0.269680 0.269680 0.269680 0.269680 0.216930 0.216930 0.264906 0.264906 0.264906 0.264906 0.260378 0.260378 0.260378 0.260378 0.260378 0.209657 0.209657 0.256074 0.256074 0.256074 0.256074 0.251976 0.251976 0.251976 0.251976 0.251976 0.248069 0.248069 0.248069 0.248069 0.248069 0.244339 0.244339 0.244339 0.244339 0.244339 0.240772 0.197066 0.197066 0.240772 0.240772 0.240772 0.237356 0.237356 0.237356 0.237356 0.237356 0.234082 0.234082 0.234082 0.234082 0.230940 0.230940 0.230940 0.230940 0.230940 0.227921 0.227921 0.227921 0.227921 0.227921 0.225018 0.225018 0.225018 0.225018 0.225018 0.222222 0.222222 0.222222 0.222222 0.219529 0.219529 0.219529 0.219529 0.219529 0.216930 0.216930 0.216930 0.216930 0.216930 0.214423 0.214423 0.214423 0.214423
