# Output from CTFFind version 4.1.14, run on 2024-08-30 16:05:33
# Input file: CtfFind/job005/Movies/20170629_00040_frameImage_PS.mrc ; Number of micrographs: 1
# Pixel size: 1.400 Angstroms ; acceleration voltage: 200.0 keV ; spherical aberration: 1.40 mm ; amplitude contrast: 0.10
# Box size: 512 pixels ; min. res.: 30.0 Angstroms ; max. res.: 5.0 Angstroms ; min. def.: 5000.0 um; max. def. 50000.0 um; num. frames averaged: 1
# 6 lines per micrograph: #1 - spatial frequency (1/Angstroms); #2 - 1D rotational average of spectrum (assuming no astigmatism); #3 - 1D rotational average of spectrum; #4 - CTF fit; #5 - cross-correlation between spectrum and CTF fit; #6 - 2sigma of expected cross correlation of noise
0.000000 0.001396 0.002791 0.004187 0.005582 0.006978 0.008373 0.009769 0.011164 0.012560 0.013955 0.015351 0.016746 0.018142 0.019538 0.020933 0.022329 0.023724 0.025120 0.026515 0.027911 0.029306 0.030702 0.032097 0.033493 0.034888 0.036284 0.037680 0.039075 0.040471 0.041866 0.043262 0.044657 0.046053 0.047448 0.048844 0.050239 0.051635 0.053030 0.054426 0.055822 0.057217 0.058613 0.060008 0.061404 0.062799 0.064195 0.065590 0.066986 0.068381 0.069777 0.071172 0.072568 0.073964 0.075359 0.076755 0.078150 0.079546 0.080941 0.082337 0.083732 0.085128 0.086523 0.087919 0.089314 0.090710 0.092106 0.093501 0.094897 0.096292 0.097688 0.099083 0.100479 0.101874 0.103270 0.104665 0.106061 0.107456 0.108852 0.110247 0.111643 0.113039 0.114434 0.115830 0.117225 0.118621 0.120016 0.121412 0.122807 0.124203 0.125598 0.126994 0.128389 0.129785 0.131181 0.132576 0.133972 0.135367 0.136763 0.138158 0.139554 0.140949 0.142345 0.143740 0.145136 0.146531 0.147927 0.149323 0.150718 0.152114 0.153509 0.154905 0.156300 0.157696 0.159091 0.160487 0.161882 0.163278 0.164673 0.166069 0.167465 0.168860 0.170256 0.171651 0.173047 0.174442 0.175838 0.177233 0.178629 0.180024 0.181420 0.182815 0.184211 0.185607 0.187002 0.188398 0.189793 0.191189 0.192584 0.193980 0.195375 0.196771 0.198166 0.199562 0.200957 0.202353 0.203749 0.205144 0.206540 0.207935 0.209331 0.210726 0.212122 0.213517 0.214913 0.216308 0.217704 0.219099 0.220495 0.221891 0.223286 0.224682 0.226077 0.227473 0.228868 0.230264 0.231659 0.233055 0.234450 0.235846 0.237241 0.238637 0.240033 0.241428 0.242824 0.244219 0.245615 0.247010 0.248406 0.249801 0.251197 0.252592 0.253988 0.255383 0.256779 0.258175 0.259570 0.260966 0.262361 0.263757 0.265152 0.266548 0.267943 0.269339 0.270734 0.272130 0.273525 0.274921 0.276317 0.277712 0.279108 0.280503 0.281899 0.283294 0.284690 0.286085 0.287481 0.288876 0.290272 0.291667 0.293063 0.294458 0.295854 0.297250 0.298645 0.300041 0.301436 0.302832 0.304227 0.305623 0.307018 0.308414 0.309809 0.311205 0.312600 0.313996 0.315392 0.316787 0.318183 0.319578 0.320974 0.322369 0.323765 0.325160 0.326556 0.327951 0.329347 0.330742 0.332138 0.333534 0.334929 0.336325 0.337720 0.339116 0.340511 0.341907 0.343302 0.344698 0.346093 0.347489 0.348884 0.350280 0.351676 0.353071 0.354467 0.355862 0.357258 0.358653 0.360049 0.361444 0.362840 0.364235 0.365631 0.367026 0.368422 0.369818 0.371213 0.372609 0.374004 0.375400 0.376795 0.378191 0.379586 0.380982 0.382377 0.383773 0.385168 0.386564 0.387960 0.389355 0.390751 0.392146 0.393542 0.394937 0.396333 0.397728 0.399124 0.400519 0.401915 0.403310 0.404706 0.406102 0.407497 0.408893 0.410288 0.411684 0.413079 0.414475 0.415870 0.417266 0.418661 0.420057 0.421452 0.422848 0.424244 0.425639 0.427035 0.428430 0.429826 0.431221 0.432617 0.434012 0.435408 0.436803 0.438199 0.439594 0.440990 0.442386 0.443781 0.445177 0.446572 0.447968 0.449363 0.450759 0.452154 0.453550 0.454945 0.456341 0.457736 0.459132 0.460528 0.461923 0.463319 0.464714 0.466110 0.467505 0.468901 0.470296 0.471692 0.473087 0.474483 0.475878 0.477274 0.478669 0.480065 0.481461 0.482856 0.484252 0.485647 0.487043 0.488438 0.489834 0.491229 0.492625 0.494020 0.495416 0.496811 0.498207 0.499603 0.500998 0.502394 0.503789 0.505185
      -0.17030       -0.11112       -0.06165       -0.04398       -0.03653       -0.03011       -0.02774       -0.02496       -0.02309       -0.02188       -0.02048       -0.01991       -0.01883       -0.01826       -0.01779       -0.01722       -0.01692       -0.01636       -0.01616       -0.01583       -0.01557       -0.01533       -0.01507       -0.01348       -0.17813       -0.70191       -0.99465       -1.01024       -0.65358       -0.02369        0.43356        0.70836        0.62889        0.17944       -0.39431       -0.82991       -0.77540       -0.53779        0.13895        0.36898        0.28811       -0.17151       -0.64229       -0.62054       -0.36130        0.25764        0.26355        0.02817       -0.52785       -0.41792       -0.08967        0.28962        0.42118       -0.05121       -0.31501       -0.03676        0.30909        0.27917        0.02629       -0.29786       -0.00041        0.29470        0.12852       -0.31775       -0.33584        0.14870        0.18609       -0.24054       -0.25039        0.14283        0.11331       -0.34163       -0.25020        0.16754        0.04924       -0.37873       -0.11080        0.16312       -0.11158       -0.33381        0.12918        0.12624       -0.28148        0.11048        0.22916       -0.14510       -0.08565        0.14555       -0.11863       -0.04100        0.26414       -0.17608       -0.08039        0.23881       -0.11338        0.00783        0.15621       -0.10643        0.11939        0.11261       -0.11725        0.16671       -0.02677       -0.02505        0.16449       -0.08341        0.08043        0.06191       -0.05737        0.03920       -0.09960       -0.03349       -0.03853        0.00646        0.00761       -0.01585        0.01672       -0.02796        0.00169        0.00522       -0.04018        0.00100       -0.02235       -0.07696       -0.06194       -0.05456       -0.00741       -0.04886       -0.03261       -0.02039       -0.03177       -0.02125       -0.00057        0.02696        0.02668        0.03113        0.05183        0.07089        0.00165        0.00869       -0.01409       -0.02890       -0.01788       -0.03479       -0.06559       -0.05575       -0.00539        0.04626       -0.03882       -0.08708       -0.02413       -0.01345        0.02455        0.03394       -0.02354       -0.03570       -0.02048       -0.02060       -0.01142       -0.02525       -0.01589       -0.00992       -0.04550        0.00083       -0.00381       -0.05115        0.01114       -0.02092       -0.02306       -0.03469       -0.00470        0.04293       -0.00578       -0.00277       -0.02164       -0.00587       -0.01012       -0.03747       -0.03793       -0.01487       -0.02925       -0.00450       -0.02342       -0.01870       -0.02086        0.00884        0.03789        0.02127        0.03082       -0.02103       -0.00359        0.01097       -0.01156       -0.04529       -0.07237       -0.03733       -0.04033       -0.01430       -0.00054       -0.05133        0.02921        0.00319       -0.02767        0.02105        0.04154       -0.03323       -0.04992       -0.02108       -0.02834        0.00895       -0.01855       -0.03594       -0.00675       -0.00304       -0.01346       -0.04150       -0.02435        0.05049        0.01698       -0.02157       -0.01611        0.04446        0.03934        0.01466        0.01729        0.02793       -0.05397       -0.02255       -0.03592       -0.05002       -0.03822        0.01871       -0.02351       -0.03879       -0.04771       -0.04020       -0.04498        0.00350       -0.04878       -0.01531        0.00802       -0.00760       -0.00234        0.00701       -0.06616        0.02541        0.01969       -0.03554       -0.00707       -0.02592       -0.01360        0.03307        0.01959        0.01115        0.01061       -0.05178       -0.02279        0.00905       -0.02959       -0.02047       -0.02619       -0.00856        0.00112       -0.03439       -0.03779        0.03669        0.05294       -0.00788       -0.03421        0.05502        0.02087       -0.04684       -0.05785       -0.03783       -0.03409        0.00258        0.01403       -0.02822       -0.00664        0.02776        0.00087       -0.05255       -0.04977       -0.00113       -0.05749       -0.05336       -0.02992       -0.03014        0.06323       -0.01612       -0.01385       -0.01154        0.02659       -0.02043       -0.03507       -0.01673        0.00891        0.00687       -0.02016        0.00553       -0.07804        0.04011       -0.06188       -0.07246        0.01021       -0.03723        0.02152       -0.07228       -0.08512       -0.08024       -0.04643       -0.00491       -0.01942       -0.00464        0.03035       -0.02101        0.04814        0.14412        0.08596        0.05943        0.03389        0.08504       -0.07735       -0.01725       -0.01598        0.06331        0.04045        0.00673        0.01937       -0.05463        0.02084       -0.10534       -0.07971       -0.02271       -0.01139       -0.05867       -0.06928       -0.00028       -0.06924       -0.11999       -0.03880       -0.01045        0.09061        0.03548       -0.01718       -0.01354       -0.04047       -0.00745       -0.06008       -0.08724        0.06393       -0.03974        0.00424        0.05532        0.09037       -0.12162       -0.14834        0.03005       -0.08664        0.08832        0.00996        1.27609        2.44134
-0.170303 -0.034284 -0.033927 -0.033330 -0.032496 -0.031423 -0.030111 -0.028561 -0.026772 -0.024745 -0.022479 -0.021573 -0.020617 -0.019578 -0.018456 -0.017436 -0.017054 -0.016647 -0.016216 -0.015885 -0.015607 -0.015315 -0.074755 -0.167681 -0.273813 -0.547591 -0.832535 -0.758993 -0.521438 -0.164257 0.301485 0.511078 0.485628 0.162268 -0.333273 -0.596055 -0.733833 -0.434057 -0.068463 0.342259 0.189799 -0.115933 -0.528246 -0.584191 -0.298650 0.063295 0.268403 0.006060 -0.341894 -0.410287 -0.147826 0.225466 0.428346 0.034742 -0.276739 -0.054333 0.201210 0.276753 0.050741 -0.207583 -0.056843 0.262896 0.156856 -0.239147 -0.353881 0.075619 0.273893 -0.185492 -0.296938 0.057219 0.157714 -0.290008 -0.356753 0.128395 0.118273 -0.343152 -0.253787 0.202017 -0.045018 -0.408909 0.016564 0.237222 -0.343798 -0.056417 0.326424 -0.123689 -0.143099 0.243026 -0.074426 -0.278299 0.346005 -0.070876 -0.290282 0.406071 -0.130820 -0.167765 0.457463 -0.250862 0.048889 0.323458 -0.318229 0.327713 -0.066016 -0.188495 0.369990 -0.247407 0.070470 0.138910 -0.152534 0.200087 -0.220838 0.030769 -0.068638 -0.080413 0.081300 -0.108225 0.097697 0.024443 -0.046920 -0.059269 -0.006723 -0.035948 0.057628 -0.105055 -0.041495 -0.085665 0.066821 0.030268 -0.088858 -0.015537 -0.036642 0.010649 -0.095493 0.086306 0.049832 -0.005131 0.066601 0.028371 0.028353 0.032542 0.003103 -0.035141 -0.089128 0.013824 -0.062139 -0.038246 -0.008887 0.065425 0.001274 -0.052642 -0.041355 -0.058810 -0.006237 0.055772 0.006628 -0.007808 -0.071650 0.045444 -0.087584 -0.015570 -0.039794 -0.032112 0.009347 -0.005825 -0.031491 -0.000424 -0.019248 0.000299 -0.027371 -0.010333 -0.023711 -0.025204 0.066599 0.004684 -0.017711 0.025708 -0.072315 -0.000937 -0.021167 0.012548 -0.006853 -0.025288 0.010943 -0.038679 -0.044066 -0.027167 0.002082 0.009061 0.092148 -0.052284 0.041874 -0.123131 0.039941 0.000217 -0.075932 -0.085942 -0.051968 0.025726 0.017255 -0.030574 -0.061069 -0.010871 0.075415 0.000264 0.030821 -0.017464 -0.086407 0.067162 -0.029402 -0.062494 -0.012611 -0.017843 0.005423 -0.049158 0.002199 -0.063255 -0.031189 -0.006783 0.092667 0.011474 -0.005676 0.004514 0.013437 0.080754 0.023894 0.015690 -0.050458 -0.026343 -0.034184 -0.022676 -0.068077 -0.049392 -0.023628 0.036697 -0.037531 -0.020796 -0.041356 -0.047635 -0.018416 -0.007442 -0.032346 -0.042206 0.007618 -0.071859 0.005662 -0.045908 -0.023346 0.003167 -0.022261 -0.042664 0.013777 0.072409 -0.010841 0.026760 0.073176 0.000590 0.037602 -0.070590 0.013075 0.007864 0.054613 0.113825 0.055133 -0.042489 -0.077642 0.033941 0.073108 -0.003207 -0.089264 -0.014590 0.060771 -0.043291 -0.135921 0.003495 -0.008481 -0.077153 -0.053724 0.021585 -0.109467 -0.053661 0.038061 -0.032008 -0.006037 -0.073717 -0.032999 -0.118207 0.012738 -0.046552 -0.041295 -0.017783 0.053980 -0.076862 -0.015551 -0.028225 -0.077148 0.104205 -0.065734 0.186279 0.080792 -0.039383 -0.130128 0.121952 -0.111603 0.142354 -0.066288 0.026260 -0.070087 0.027929 -0.076225 -0.027937 -0.046375 0.011539 0.079410 0.077833 0.046732 -0.019285 -0.025468 0.019072 0.125733 0.008433 0.054762 0.078683 -0.041227 0.184547 -0.070876 0.104831 0.006519 0.102188 0.289272 -0.140742 0.082550 -0.300850 -0.223681 0.147552 -0.084214 0.099109 0.116909 -0.093490 -0.030145 0.093818 0.038601 -0.324634 -0.015676 0.113275 -0.124759 0.000584 0.264663 0.032653 -0.137260 -0.118596 -0.011580 -0.046929 0.080808 -0.316170 -0.318164 0.098151 0.310625 -0.440568 0.093500 -0.231339 -0.003669 1.338061 0.000000
0.100000 0.105601 0.122382 0.150271 0.189110 0.238605 0.298255 0.367258 0.444410 0.527989 0.615646 0.704303 0.790077 0.868261 0.933373 0.979299 0.999571 0.987782 0.938160 0.846289 0.709951 0.530019 0.311302 0.063208 0.199959 0.459235 0.691962 0.873586 0.980323 0.992553 0.898622 0.698505 0.406617 0.052920 0.318457 0.653646 0.896552 0.998843 0.930907 0.691553 0.313760 0.136148 0.567552 0.882767 1.000000 0.877104 0.529420 0.034801 0.479012 0.864969 0.999517 0.825854 0.382491 0.196662 0.717086 0.987495 0.893471 0.452634 0.175875 0.740968 0.997732 0.818060 0.263549 0.422163 0.912584 0.954239 0.506384 0.214643 0.827606 0.984948 0.577935 0.174960 0.830000 0.975298 0.499021 0.309156 0.917699 0.900200 0.247353 0.590355 0.998910 0.654643 0.199859 0.903257 0.880568 0.128317 0.738510 0.973498 0.350622 0.592951 0.997688 0.468468 0.513106 0.999985 0.494010 0.516734 0.999072 0.431133 0.603059 0.983714 0.271332 0.752348 0.913774 0.003882 0.915120 0.727733 0.358674 0.999940 0.368837 0.742869 0.881045 0.158506 0.986697 0.457080 0.714374 0.874483 0.226205 0.999239 0.290912 0.857558 0.699263 0.542483 0.935409 0.159710 0.999563 0.207006 0.929979 0.508427 0.778030 0.727162 0.591323 0.867925 0.405809 0.947037 0.244463 0.984201 0.119689 0.997342 0.036862 0.999931 0.002397 0.999984 0.002144 0.999783 0.050433 0.995861 0.142030 0.979078 0.274672 0.935012 0.441859 0.845268 0.629344 0.690536 0.811862 0.456297 0.951321 0.141421 0.999185 0.231408 0.905804 0.607085 0.638615 0.897762 0.207212 0.998775 0.313221 0.826194 0.776574 0.370985 0.997708 0.252669 0.831285 0.804080 0.277446 0.996374 0.445992 0.659871 0.948598 0.087265 0.873947 0.806630 0.189574 0.965964 0.662969 0.363636 0.993690 0.570968 0.441371 0.998226 0.553837 0.431126 0.994697 0.615065 0.331798 0.970723 0.740652 0.134263 0.887872 0.891880 0.163997 0.689945 0.994376 0.530998 0.328283 0.938470 0.867605 0.186754 0.616298 0.997860 0.721170 0.014692 0.734093 0.998617 0.666620 0.048323 0.728266 0.999998 0.732825 0.086465 0.596274 0.976537 0.883563 0.379742 0.289731 0.823135 0.998283 0.757924 0.216767 0.401070 0.859046 0.997343 0.782064 0.303633 0.267300 0.744160 0.985031 0.930631 0.612015 0.131076 0.375886 0.778212 0.983326 0.954484 0.712089 0.321545 0.127090 0.541242 0.844772 0.990107 0.963007 0.779943 0.480756 0.118404 0.251179 0.577958 0.823922 0.966222 0.997480 0.923991 0.762468 0.536346 0.271786 0.005444 0.272454 0.510915 0.707853 0.855474 0.950976 0.995525 0.993394 0.950935 0.875660 0.775450 0.658020 0.530326 0.398504 0.267556 0.141331 0.022855 0.085945 0.183927 0.270487 0.345506 0.409236 0.462256 0.505031 0.538267 0.562464 0.578099 0.585488 0.584788 0.576008 0.558990 0.533396 0.498706 0.454412 0.399949 0.334734 0.258363 0.170635 0.071733 0.037732 0.156399 0.282341 0.412465 0.542920 0.668676 0.783806 0.881401 0.954098 0.994325 0.994928 0.949940 0.855384 0.710235 0.517331 0.283843 0.022347 0.250181 0.512186 0.739394 0.907089 0.992719 0.979542 0.859973 0.638601 0.334013 0.021144 0.382492 0.698500 0.918270 0.999974 0.920188 0.681350 0.315639 0.116541 0.534742 0.852662 0.996528 0.923986 0.638954 0.197199 0.300864 0.730529 0.973939 0.954317 0.663681 0.173808 0.376131 0.816503 0.999335 0.851526 0.408933 0.184593 0.718663 0.989733 0.881724 0.421821 0.216038 0.770891 0.999822 0.788727
1.000000 1.000000 1.000000 1.000000 1.000000 1.000000 1.000000 1.000000 1.000000 1.000000 1.000000 1.000000 1.000000 1.000000 1.000000 1.000000 1.000000 1.000000 1.000000 1.000000 1.000000 1.000000 1.000000 1.000000 -0.470508 -0.470508 -0.470508 -0.470508 -0.470508 -0.440138 -0.440138 -0.440138 -0.440138 -0.440138 -0.440138 -0.440138 -0.440138 -0.478739 -0.345300 -0.297815 -0.381841 -0.438724 -0.370517 -0.445368 -0.434349 -0.433403 -0.396765 -0.402426 -0.288394 -0.316589 -0.301630 -0.335483 -0.234690 -0.335835 -0.310518 -0.294714 -0.315497 -0.235275 -0.250604 -0.196154 -0.169349 -0.178216 -0.005768 -0.010082 0.054045 0.052524 0.080479 0.092375 0.163174 0.142665 0.177415 0.198036 0.236656 0.255213 0.256179 0.384179 0.340300 0.398170 0.431748 0.464492 0.510512 0.487805 0.545637 0.514363 0.613833 0.596355 0.641590 0.681787 0.660450 0.750382 0.771500 0.771073 0.757380 0.742856 0.802621 0.762140 0.754817 0.755522 0.780781 0.697312 0.621547 0.566891 0.573220 0.492143 0.382500 0.408550 0.404300 0.356396 0.294091 0.286932 0.381200 0.360902 0.395517 0.313265 0.241618 0.348492 0.342762 0.383163 0.262369 0.237018 0.271524 0.290347 0.126718 0.024842 0.040139 0.170197 0.102733 0.078037 0.182568 0.188436 0.196766 0.212128 0.290432 0.272989 0.303942 0.287849 0.219700 0.192176 0.161853 0.162466 0.131021 0.091179 0.044687 0.051976 0.007114 -0.005279 -0.061860 -0.055694 -0.094100 -0.103576 -0.018540 0.030780 0.114189 0.132809 0.183148 0.171804 0.152881 -0.020219 0.154900 0.156578 0.167975 0.101173 -0.015294 -0.033749 0.091046 -0.161244 -0.209587 -0.145704 -0.075719 -0.072640 -0.082005 -0.080519 -0.083712 -0.046139 0.070854 -0.064112 -0.065249 -0.125209 -0.085427 0.010335 -0.028480 -0.008443 -0.068445 -0.059926 -0.076871 -0.133898 -0.074050 -0.122311 -0.167518 -0.121984 -0.133549 -0.341341 -0.110349 -0.093287 -0.330928 -0.116755 -0.115517 -0.175087 -0.071840 -0.076583 -0.025463 -0.174035 -0.193575 -0.107912 -0.033779 -0.131391 -0.134958 -0.044500 -0.058509 -0.047797 -0.048399 -0.164189 -0.037826 -0.038246 -0.189680 -0.166888 -0.057519 -0.022938 -0.070743 -0.059198 -0.057522 -0.012462 -0.065055 0.017900 0.001703 -0.036956 -0.001821 0.119307 0.120901 0.109076 0.048721 0.063277 0.126910 0.122427 0.112539 0.157369 0.101326 0.090553 0.101330 0.100244 0.122386 0.138189 0.136053 0.145653 0.127524 0.052367 0.118689 0.100734 0.084873 0.180859 0.190544 0.201446 0.209043 0.208802 0.219579 0.271923 0.281601 0.196266 0.194418 0.304071 0.306722 0.304630 0.297539 0.309418 0.319495 0.318734 0.319672 0.319536 0.318654 0.244444 0.286751 0.270457 0.282275 0.285576 0.283596 0.283853 0.286231 0.286207 0.251936 0.258366 0.261161 0.322641 0.315047 0.304094 0.297164 0.293215 0.294718 0.293951 0.279998 0.289361 0.296846 0.344060 0.341997 0.339258 0.337791 0.337963 0.336736 0.336553 0.327544 0.342925 0.337368 0.336438 0.341915 0.351225 0.298086 0.356219 0.346183 0.355812 0.364034 0.365146 0.403074 0.390002 0.390176 0.390239 0.401198 0.382379 0.383322 0.385595 0.383636 0.412774 0.406484 0.406066 0.400780 0.422856 0.420973 0.420973 0.420973 0.420973 0.420973 0.422003 0.422003 0.422003 0.422003 0.418898 0.418898 0.418898 0.418898 0.418898 0.419757 0.419757 0.419757 0.419757 0.420781 0.420781 0.420781 0.420781 0.415268 0.415268 0.415268 0.415268 0.415268 0.400929 0.400929 0.400929 0.400929 0.412704 0.412704 0.412704 0.412704 0.400265 0.400265 0.400265 0.400265
0.000000 0.000000 0.000000 0.000000 0.000000 0.000000 0.000000 0.000000 0.000000 0.000000 0.000000 0.000000 0.000000 0.000000 0.000000 0.000000 0.000000 0.000000 0.000000 0.000000 0.000000 0.000000 0.000000 0.000000 0.359211 0.359211 0.359211 0.359211 0.359211 0.384900 0.384900 0.384900 0.384900 0.384900 0.384900 0.384900 0.384900 0.384900 0.458831 0.458831 0.458831 0.458831 0.458831 0.458831 0.436436 0.436436 0.436436 0.436436 0.436436 0.436436 0.417029 0.417029 0.417029 0.417029 0.417029 0.417029 0.436436 0.436436 0.436436 0.436436 0.436436 0.458831 0.458831 0.458831 0.458831 0.458831 0.458831 0.458831 0.458831 0.436436 0.436436 0.436436 0.436436 0.436436 0.436436 0.436436 0.436436 0.417029 0.417029 0.417029 0.417029 0.458831 0.458831 0.458831 0.458831 0.458831 0.458831 0.436436 0.436436 0.436436 0.436436 0.436436 0.436436 0.436436 0.436436 0.436436 0.417029 0.417029 0.417029 0.417029 0.417029 0.417029 0.400000 0.400000 0.400000 0.400000 0.400000 0.400000 0.458831 0.458831 0.384900 0.384900 0.384900 0.436436 0.436436 0.371391 0.371391 0.371391 0.436436 0.436436 0.417029 0.417029 0.359211 0.359211 0.359211 0.417029 0.417029 0.400000 0.400000 0.400000 0.400000 0.400000 0.400000 0.400000 0.400000 0.384900 0.384900 0.384900 0.384900 0.328798 0.328798 0.328798 0.458831 0.371391 0.371391 0.371391 0.371391 0.359211 0.359211 0.359211 0.359211 0.359211 0.359211 0.359211 0.359211 0.348155 0.348155 0.417029 0.348155 0.348155 0.338062 0.338062 0.338062 0.338062 0.417029 0.328798 0.328798 0.328798 0.328798 0.328798 0.328798 0.400000 0.320256 0.320256 0.384900 0.320256 0.320256 0.312348 0.312348 0.384900 0.312348 0.312348 0.371391 0.304997 0.304997 0.371391 0.304997 0.304997 0.371391 0.298142 0.298142 0.359211 0.291730 0.291730 0.359211 0.291730 0.291730 0.348155 0.285714 0.285714 0.348155 0.285714 0.285714 0.348155 0.338062 0.280056 0.280056 0.338062 0.338062 0.274721 0.274721 0.328798 0.269680 0.269680 0.328798 0.328798 0.264906 0.264906 0.320256 0.320256 0.320256 0.260378 0.260378 0.320256 0.312348 0.256074 0.256074 0.312348 0.312348 0.312348 0.251976 0.251976 0.304997 0.304997 0.304997 0.304997 0.244339 0.244339 0.298142 0.298142 0.298142 0.298142 0.240772 0.240772 0.291730 0.291730 0.291730 0.291730 0.285714 0.234082 0.234082 0.285714 0.285714 0.285714 0.280056 0.280056 0.280056 0.227921 0.227921 0.280056 0.274721 0.274721 0.274721 0.274721 0.274721 0.269680 0.269680 0.269680 0.269680 0.219529 0.219529 0.264906 0.264906 0.264906 0.264906 0.264906 0.260378 0.260378 0.260378 0.260378 0.260378 0.256074 0.256074 0.256074 0.256074 0.256074 0.251976 0.251976 0.251976 0.251976 0.251976 0.248069 0.248069 0.248069 0.248069 0.248069 0.244339 0.244339 0.244339 0.244339 0.244339 0.240772 0.240772 0.240772 0.240772 0.240772 0.237356 0.237356 0.237356 0.237356 0.237356 0.234082 0.234082 0.234082 0.234082 0.230940 0.230940 0.230940 0.230940 0.230940 0.227921 0.227921 0.227921 0.227921 0.225018 0.225018 0.225018 0.225018 0.225018 0.222222 0.222222 0.222222 0.222222 0.219529 0.219529 0.219529 0.219529 0.219529 0.216930 0.216930 0.216930 0.216930 0.214423 0.214423 0.214423 0.214423 0.212000 0.212000 0.212000 0.212000 0.212000 0.209657 0.209657 0.209657 0.209657 0.207390 0.207390 0.207390 0.207390 0.205196 0.205196 0.205196 0.205196
