# Output from CTFFind version 4.1.14, run on 2024-08-30 16:05:32
# Input file: CtfFind/job005/Movies/20170629_00045_frameImage_PS.mrc ; Number of micrographs: 1
# Pixel size: 1.400 Angstroms ; acceleration voltage: 200.0 keV ; spherical aberration: 1.40 mm ; amplitude contrast: 0.10
# Box size: 512 pixels ; min. res.: 30.0 Angstroms ; max. res.: 5.0 Angstroms ; min. def.: 5000.0 um; max. def. 50000.0 um; num. frames averaged: 1
# 6 lines per micrograph: #1 - spatial frequency (1/Angstroms); #2 - 1D rotational average of spectrum (assuming no astigmatism); #3 - 1D rotational average of spectrum; #4 - CTF fit; #5 - cross-correlation between spectrum and CTF fit; #6 - 2sigma of expected cross correlation of noise
0.000000 0.001396 0.002791 0.004187 0.005582 0.006978 0.008373 0.009769 0.011164 0.012560 0.013955 0.015351 0.016746 0.018142 0.019538 0.020933 0.022329 0.023724 0.025120 0.026515 0.027911 0.029306 0.030702 0.032097 0.033493 0.034888 0.036284 0.037680 0.039075 0.040471 0.041866 0.043262 0.044657 0.046053 0.047448 0.048844 0.050239 0.051635 0.053030 0.054426 0.055822 0.057217 0.058613 0.060008 0.061404 0.062799 0.064195 0.065590 0.066986 0.068381 0.069777 0.071172 0.072568 0.073964 0.075359 0.076755 0.078150 0.079546 0.080941 0.082337 0.083732 0.085128 0.086523 0.087919 0.089314 0.090710 0.092106 0.093501 0.094897 0.096292 0.097688 0.099083 0.100479 0.101874 0.103270 0.104665 0.106061 0.107456 0.108852 0.110247 0.111643 0.113039 0.114434 0.115830 0.117225 0.118621 0.120016 0.121412 0.122807 0.124203 0.125598 0.126994 0.128389 0.129785 0.131181 0.132576 0.133972 0.135367 0.136763 0.138158 0.139554 0.140949 0.142345 0.143740 0.145136 0.146531 0.147927 0.149323 0.150718 0.152114 0.153509 0.154905 0.156300 0.157696 0.159091 0.160487 0.161882 0.163278 0.164673 0.166069 0.167465 0.168860 0.170256 0.171651 0.173047 0.174442 0.175838 0.177233 0.178629 0.180024 0.181420 0.182815 0.184211 0.185607 0.187002 0.188398 0.189793 0.191189 0.192584 0.193980 0.195375 0.196771 0.198166 0.199562 0.200957 0.202353 0.203749 0.205144 0.206540 0.207935 0.209331 0.210726 0.212122 0.213517 0.214913 0.216308 0.217704 0.219099 0.220495 0.221891 0.223286 0.224682 0.226077 0.227473 0.228868 0.230264 0.231659 0.233055 0.234450 0.235846 0.237241 0.238637 0.240033 0.241428 0.242824 0.244219 0.245615 0.247010 0.248406 0.249801 0.251197 0.252592 0.253988 0.255383 0.256779 0.258175 0.259570 0.260966 0.262361 0.263757 0.265152 0.266548 0.267943 0.269339 0.270734 0.272130 0.273525 0.274921 0.276317 0.277712 0.279108 0.280503 0.281899 0.283294 0.284690 0.286085 0.287481 0.288876 0.290272 0.291667 0.293063 0.294458 0.295854 0.297250 0.298645 0.300041 0.301436 0.302832 0.304227 0.305623 0.307018 0.308414 0.309809 0.311205 0.312600 0.313996 0.315392 0.316787 0.318183 0.319578 0.320974 0.322369 0.323765 0.325160 0.326556 0.327951 0.329347 0.330742 0.332138 0.333534 0.334929 0.336325 0.337720 0.339116 0.340511 0.341907 0.343302 0.344698 0.346093 0.347489 0.348884 0.350280 0.351676 0.353071 0.354467 0.355862 0.357258 0.358653 0.360049 0.361444 0.362840 0.364235 0.365631 0.367026 0.368422 0.369818 0.371213 0.372609 0.374004 0.375400 0.376795 0.378191 0.379586 0.380982 0.382377 0.383773 0.385168 0.386564 0.387960 0.389355 0.390751 0.392146 0.393542 0.394937 0.396333 0.397728 0.399124 0.400519 0.401915 0.403310 0.404706 0.406102 0.407497 0.408893 0.410288 0.411684 0.413079 0.414475 0.415870 0.417266 0.418661 0.420057 0.421452 0.422848 0.424244 0.425639 0.427035 0.428430 0.429826 0.431221 0.432617 0.434012 0.435408 0.436803 0.438199 0.439594 0.440990 0.442386 0.443781 0.445177 0.446572 0.447968 0.449363 0.450759 0.452154 0.453550 0.454945 0.456341 0.457736 0.459132 0.460528 0.461923 0.463319 0.464714 0.466110 0.467505 0.468901 0.470296 0.471692 0.473087 0.474483 0.475878 0.477274 0.478669 0.480065 0.481461 0.482856 0.484252 0.485647 0.487043 0.488438 0.489834 0.491229 0.492625 0.494020 0.495416 0.496811 0.498207 0.499603 0.500998 0.502394 0.503789 0.505185
      -0.18498       -0.11948       -0.06472       -0.04517       -0.03692       -0.02982       -0.02720       -0.02412       -0.02205       -0.02070       -0.01916       -0.01853       -0.01734       -0.01671       -0.01618       -0.01555       -0.01522       -0.01460       -0.01438       -0.01401       -0.01372       -0.01346       -0.01317       -0.00973        0.30688       -0.05848       -0.47655       -0.85643       -1.02073       -0.90010       -0.19005        0.34190        0.67581        0.69240        0.32701       -0.20961       -0.70914       -0.96686       -0.65855       -0.27863        0.24442        0.40142        0.23030       -0.28089       -0.63376       -0.68287       -0.23100        0.28768        0.41351        0.01410       -0.20858       -0.34573       -0.11685        0.36968        0.45799        0.26036       -0.05846       -0.20938        0.15988        0.48392        0.26700       -0.07378       -0.20236        0.17965        0.27728       -0.06173       -0.37757       -0.31129        0.02664        0.22499       -0.12262       -0.37985       -0.10867        0.09748       -0.30419       -0.28146        0.02158        0.12712       -0.14362       -0.25239        0.06372        0.14878       -0.22929       -0.06832        0.21399       -0.02355       -0.25736        0.05003        0.09841       -0.22167       -0.08606        0.16713       -0.09593       -0.04158        0.20876        0.00633       -0.04608        0.20239       -0.00171       -0.13807        0.13674       -0.07490       -0.08169        0.21440       -0.13092        0.01314        0.09445       -0.07267        0.09059        0.04762       -0.06010        0.05645       -0.00912       -0.03014        0.09042       -0.05428        0.03986       -0.04099       -0.01899       -0.02765       -0.03943        0.01713       -0.05757       -0.11015        0.02043        0.03497       -0.00295        0.00331       -0.03355       -0.04910       -0.01207       -0.03787       -0.01068       -0.01102        0.03109        0.02240        0.06773        0.07233        0.04951        0.03568        0.04352       -0.05218       -0.01553       -0.02820        0.01032        0.02417       -0.11264       -0.05908       -0.07172       -0.05188       -0.03488       -0.04761       -0.03299       -0.11389       -0.05403       -0.06203       -0.04659       -0.02993        0.02002       -0.00701       -0.02900       -0.00031        0.00683        0.02476       -0.01723        0.03361        0.02082       -0.03724       -0.01647        0.05075        0.01873        0.03659        0.00530       -0.06373        0.00104        0.01820       -0.07924       -0.00024       -0.02163       -0.05079        0.04119        0.02041        0.00383        0.01635       -0.00543        0.00663        0.02297       -0.04129       -0.03534       -0.03784       -0.04011       -0.06871       -0.08358        0.00008        0.01877        0.01416       -0.01627        0.03586        0.03489        0.01855        0.00676        0.03145        0.05323       -0.02289       -0.03872       -0.02527       -0.03708       -0.03427       -0.01614       -0.00547        0.00393        0.02303       -0.01107       -0.00133       -0.01083       -0.02729       -0.01072        0.00513       -0.02886       -0.06002       -0.04783       -0.01478        0.03548        0.00122        0.01960        0.04575       -0.00970        0.02711       -0.00959       -0.04591       -0.02525       -0.03144       -0.04944        0.00464        0.00750        0.01013       -0.03385       -0.01899       -0.01373        0.02938        0.02394       -0.00154       -0.02242       -0.03310       -0.00966        0.00240       -0.02867        0.00342       -0.02794       -0.05256       -0.05076        0.00540       -0.02196        0.01515        0.00489       -0.01448        0.01223       -0.02624        0.01188        0.00346        0.01545        0.00014       -0.03566       -0.00196       -0.01182       -0.00389        0.03674        0.00592       -0.06256       -0.00176        0.02015       -0.08215       -0.01912        0.02499       -0.02184       -0.03991       -0.01308       -0.00544        0.01516       -0.03248        0.03492        0.07113       -0.01660       -0.05104        0.04153       -0.00564        0.01146        0.00903        0.01411        0.00150       -0.09538       -0.06221       -0.04487        0.01876        0.03040       -0.02898       -0.00506       -0.00183       -0.06340       -0.01767       -0.04194       -0.04370       -0.07372       -0.05745       -0.02155       -0.05712       -0.00639        0.00819        0.04748       -0.03465        0.04016       -0.03039       -0.00058        0.03671        0.06619        0.07985       -0.04399        0.13505        0.01870        0.07506       -0.05904       -0.05981       -0.01122        0.06990       -0.01619       -0.02045       -0.02444       -0.05999       -0.11514       -0.02286        0.01082       -0.03090        0.00051        0.05785        0.09680       -0.07617        0.00815        0.00720       -0.02120        0.07531        0.03651        0.05746        0.05551       -0.16678        0.07135       -0.17261       -0.00230       -0.06571       -0.06516       -0.01113       -0.02322       -0.12337       -0.24347       -0.06108       -0.03064        0.19292       -0.08224        0.17870        0.15044        0.29770        0.42042        0.99656        1.17028
-0.184984 -0.034413 -0.034018 -0.033359 -0.032436 -0.031250 -0.029800 -0.028087 -0.026110 -0.023869 -0.021365 -0.020385 -0.019324 -0.018170 -0.016924 -0.015793 -0.015370 -0.014920 -0.014442 -0.014034 -0.013659 -0.013265 0.013247 0.055051 0.086755 -0.179791 -0.457210 -0.653394 -0.813232 -0.676095 -0.248807 0.148016 0.513814 0.527479 0.318700 -0.145437 -0.614513 -0.771566 -0.647657 -0.265743 0.107929 0.285983 0.231879 -0.213122 -0.531672 -0.608809 -0.294483 0.203095 0.294566 0.097372 -0.194963 -0.324321 -0.113207 0.296644 0.413820 0.282228 0.006742 -0.146906 0.090537 0.401439 0.313303 -0.043227 -0.150325 0.099946 0.280410 -0.006626 -0.348812 -0.367015 -0.023065 0.182597 -0.054181 -0.348377 -0.141268 0.144657 -0.203865 -0.340707 -0.016304 0.143647 -0.077358 -0.311952 0.022782 0.209285 -0.212009 -0.195986 0.231772 0.072528 -0.317442 -0.010659 0.216907 -0.252708 -0.230500 0.327384 -0.022621 -0.236423 0.248404 0.160070 -0.226128 0.216898 0.135407 -0.230021 0.139209 0.138247 -0.363926 0.302931 0.059406 -0.307758 0.365486 -0.207909 -0.032218 0.359737 -0.455846 0.240862 0.022546 -0.187311 0.279108 -0.196040 0.060803 0.103679 -0.275937 0.248124 -0.220888 0.078811 -0.039859 -0.171039 0.080051 -0.067786 0.115053 -0.046271 -0.029968 -0.002351 -0.149266 0.058739 -0.054524 0.050075 -0.086839 0.120622 0.043804 0.132888 -0.060716 0.079503 0.014787 -0.031300 0.019852 -0.033955 0.010093 -0.023115 -0.059224 -0.064085 -0.062715 -0.092990 -0.020742 -0.050559 -0.100950 -0.094348 -0.059053 -0.060977 -0.066909 -0.111278 0.014265 0.023933 0.002125 -0.007011 -0.002470 0.006294 0.067299 -0.035988 0.026268 -0.016752 -0.045408 0.003018 0.029402 0.037880 0.003419 -0.024861 -0.071820 0.030262 -0.026844 -0.035391 -0.066163 0.001494 -0.003173 0.015913 -0.004174 0.034428 0.007297 -0.007108 -0.029152 -0.025306 0.039526 -0.106924 -0.039067 -0.009936 -0.073408 -0.009297 0.045133 -0.014659 0.052400 0.056258 0.040409 0.058911 0.010632 0.120645 0.087242 -0.053705 -0.017253 -0.071066 -0.074408 -0.011118 0.039659 0.075877 -0.028474 0.030432 0.005918 0.041329 0.007239 -0.105180 0.001621 -0.033303 -0.025320 -0.052306 -0.074205 0.030609 -0.004416 0.005149 -0.008224 -0.042505 -0.022086 0.053928 0.019457 -0.001853 0.001090 0.026331 -0.063980 -0.002160 -0.104462 0.015114 0.008732 -0.066011 -0.047045 -0.055534 0.038796 -0.096206 -0.008963 0.014436 0.044736 -0.060363 -0.071359 0.053403 -0.011032 -0.001915 -0.172605 -0.005511 -0.075054 -0.036298 0.081957 0.024368 -0.004277 -0.065139 0.008718 0.008351 -0.048640 0.014234 0.011669 -0.036217 -0.005710 0.034048 -0.049533 0.019499 -0.016439 0.050529 0.024699 -0.049159 0.040542 -0.131020 -0.041497 -0.056626 -0.001684 -0.105692 -0.090006 0.072831 -0.001311 -0.068891 0.035351 0.008572 -0.107295 -0.049960 -0.043782 -0.028391 0.108492 -0.006681 0.032372 -0.065336 -0.011669 0.006654 0.026048 0.072061 -0.148015 -0.105439 -0.059017 -0.103797 -0.048409 -0.102523 -0.058136 -0.185932 0.089644 -0.088583 -0.280466 -0.135822 0.117363 -0.034238 0.009375 -0.090044 -0.069873 0.049809 0.131214 0.181184 0.011667 -0.025809 0.051358 0.127761 -0.108299 0.170832 0.003293 -0.007035 -0.008719 -0.091613 -0.011345 0.088732 -0.273445 -0.198631 -0.111138 -0.217594 -0.032902 0.052410 0.149822 0.209682 0.071827 -0.214244 -0.138942 0.071114 -0.064920 -0.055683 0.203087 -0.269436 -0.054516 -0.595022 0.061959 -0.554681 -0.061460 0.120723 -0.362550 0.151145 -0.075997 -0.018183 0.116464 -0.188456 -0.646993 0.126054 0.185174 -0.002826 0.801264 0.704043 -0.025648
0.100000 0.105426 0.121684 0.148707 0.186348 0.234337 0.292212 0.359236 0.434308 0.515848 0.601705 0.689051 0.774315 0.853149 0.920461 0.970533 0.997242 0.994419 0.956339 0.878357 0.757656 0.594073 0.390900 0.155568 0.099938 0.359109 0.601534 0.804258 0.943928 0.999671 0.956501 0.808834 0.563552 0.241875 0.120681 0.476915 0.773406 0.958628 0.992787 0.857761 0.564884 0.158136 0.289371 0.686616 0.942809 0.989480 0.801457 0.410461 0.094543 0.583636 0.917833 0.989928 0.762793 0.291341 0.283296 0.771345 0.996368 0.862713 0.402557 0.221011 0.764886 0.999157 0.808821 0.258605 0.416721 0.905304 0.962588 0.541696 0.161616 0.788242 0.995622 0.651765 0.068152 0.755980 0.996294 0.624184 0.146796 0.830249 0.968464 0.448540 0.388997 0.956577 0.830656 0.083099 0.734341 0.985143 0.451746 0.454272 0.989043 0.686825 0.213864 0.931658 0.812507 0.056508 0.878297 0.863810 0.005499 0.863693 0.862519 0.029345 0.895554 0.808052 0.160290 0.956149 0.677765 0.379572 0.999327 0.436715 0.655092 0.949084 0.062577 0.906871 0.715022 0.410673 0.996562 0.244099 0.844356 0.766628 0.389209 0.993621 0.162332 0.909616 0.631238 0.600094 0.917022 0.186452 0.999700 0.223940 0.914482 0.561868 0.720645 0.798526 0.477510 0.935787 0.231324 0.993141 0.011561 0.996520 0.167048 0.970951 0.300099 0.936819 0.388830 0.908655 0.436370 0.895261 0.445217 0.900232 0.415953 0.922253 0.346939 0.955002 0.235182 0.986724 0.078229 0.999855 0.122608 0.971500 0.358110 0.875811 0.606489 0.689434 0.829970 0.400699 0.975382 0.021918 0.982194 0.398963 0.800752 0.773627 0.420007 0.985548 0.103252 0.925829 0.630451 0.551086 0.964237 0.057563 0.923442 0.674665 0.455746 0.994414 0.268768 0.789769 0.871868 0.102611 0.950304 0.678944 0.374980 0.997817 0.502847 0.541977 0.995834 0.389868 0.619573 0.987894 0.358814 0.621581 0.991895 0.413431 0.548558 0.999979 0.546389 0.387593 0.978656 0.732659 0.122742 0.871441 0.916263 0.241631 0.613356 0.999867 0.646627 0.169759 0.859419 0.950262 0.399420 0.409704 0.947385 0.883799 0.277651 0.489051 0.961739 0.880159 0.309067 0.423803 0.924386 0.942663 0.487279 0.201125 0.785754 0.999702 0.761185 0.192730 0.450398 0.899356 0.982279 0.682532 0.129860 0.462422 0.882757 0.994813 0.775777 0.311689 0.241640 0.713936 0.972601 0.956367 0.683928 0.239559 0.256523 0.682207 0.943237 0.991169 0.828323 0.500664 0.082386 0.342416 0.697325 0.926089 0.999879 0.917872 0.703217 0.395825 0.043862 0.304474 0.607479 0.834147 0.966311 0.998551 0.936538 0.794397 0.591680 0.350434 0.092530 0.162284 0.397634 0.601306 0.765416 0.885949 0.962386 0.996987 0.993936 0.958710 0.897449 0.816346 0.721409 0.618023 0.510846 0.403881 0.300250 0.202300 0.111806 0.029922 0.042653 0.105449 0.158433 0.201678 0.235230 0.259349 0.274223 0.279903 0.276464 0.263939 0.242142 0.211044 0.170446 0.120140 0.060144 0.009439 0.088373 0.176015 0.271340 0.372751 0.478160 0.584727 0.688737 0.786059 0.871546 0.939657 0.984444 0.999987 0.980790 0.922312 0.821682 0.678321 0.494550 0.276301 0.033285 0.220744 0.468508 0.690255 0.865043 0.972990 0.997633 0.928761 0.764999 0.515790 0.202259 0.143263 0.479665 0.761627 0.945934 0.998578 0.902105 0.661501 0.306946 0.107678 0.511381 0.827514 0.988878 0.953385 0.716943 0.319977 0.156387 0.604134 0.912452 0.996144 0.821768 0.423473 0.098705 0.600285 0.931225
1.000000 1.000000 1.000000 1.000000 1.000000 1.000000 1.000000 1.000000 1.000000 1.000000 1.000000 1.000000 1.000000 1.000000 1.000000 1.000000 1.000000 1.000000 1.000000 1.000000 1.000000 1.000000 1.000000 1.000000 -0.839415 -0.839415 -0.839415 -0.839415 -0.839415 -0.839415 -0.827481 -0.827481 -0.827481 -0.827481 -0.827481 -0.837200 -0.835862 -0.834861 -0.837997 -0.844828 -0.843862 -0.828380 -0.827232 -0.838438 -0.838977 -0.849726 -0.854690 -0.838137 -0.795639 -0.807384 -0.802862 -0.800821 -0.783101 -0.770305 -0.682440 -0.699498 -0.637759 -0.626781 -0.637397 -0.553409 -0.534380 -0.501747 -0.472784 -0.361540 -0.272327 -0.308063 -0.269922 -0.247947 -0.207682 -0.137365 -0.106023 -0.058180 -0.058178 0.073191 0.100887 0.165407 0.155571 0.215084 0.247741 0.288866 0.419701 0.402011 0.447510 0.434034 0.532573 0.572070 0.581332 0.651312 0.684476 0.736477 0.748676 0.777275 0.782071 0.861488 0.851827 0.861021 0.874939 0.876526 0.881467 0.893519 0.891553 0.886604 0.878552 0.879941 0.827429 0.836121 0.832715 0.819000 0.808331 0.839476 0.818210 0.801529 0.819330 0.789143 0.795362 0.736764 0.701278 0.753077 0.677663 0.684798 0.687408 0.687158 0.618806 0.619767 0.652690 0.651482 0.589726 0.567899 0.638256 0.588713 0.534636 0.468231 0.401796 0.377940 0.368391 0.378633 0.324635 0.320914 0.241275 0.280670 0.191366 0.197007 0.186690 0.190008 0.171727 0.211777 0.185309 0.167256 0.107183 0.039276 0.055080 0.053618 0.080197 0.012193 -0.147431 -0.127271 -0.181240 -0.263549 -0.244425 -0.221974 -0.224972 -0.212279 -0.250304 -0.219256 -0.251691 -0.244731 -0.194320 -0.191594 -0.240488 -0.223476 -0.260394 -0.308383 -0.303523 -0.333485 -0.333344 -0.304353 -0.327499 -0.361152 -0.307936 -0.362554 -0.368940 -0.387376 -0.497897 -0.349844 -0.302217 -0.455695 -0.221640 -0.285331 -0.357730 -0.294600 -0.230161 -0.271390 -0.275024 -0.170790 -0.240488 -0.171717 -0.063405 -0.148234 -0.163455 -0.198312 -0.160099 -0.137086 -0.102362 -0.098434 -0.108888 -0.095765 -0.044344 -0.078789 -0.074953 -0.000145 0.003082 -0.057261 0.010337 0.076818 0.043701 0.039974 0.072808 0.137114 0.110268 0.108252 0.204422 0.242711 0.122684 0.131097 0.182939 0.200732 0.110262 0.131224 0.121973 0.147040 0.166656 0.155873 0.071835 0.057153 0.055114 0.180090 0.175025 0.208284 0.188227 0.165195 0.142521 0.132791 0.175975 0.175514 0.219673 0.253649 0.130922 0.122410 0.210058 0.206279 0.196371 0.215024 0.181775 0.181727 0.212774 0.192026 0.247215 0.238010 0.215363 0.235994 0.246471 0.163583 0.173619 0.177076 0.186051 0.185905 0.188348 0.161267 0.268278 0.269662 0.191400 0.191882 0.191783 0.192893 0.205129 0.210611 0.222765 0.228341 0.228530 0.228832 0.233754 0.241191 0.237852 0.253170 0.261095 0.261391 0.255779 0.248723 0.240108 0.290635 0.288793 0.268164 0.270318 0.272691 0.273136 0.272317 0.274133 0.274798 0.273835 0.272517 0.241225 0.284072 0.285042 0.290612 0.298416 0.304157 0.304900 0.302008 0.338458 0.327231 0.318917 0.318166 0.317962 0.319020 0.336703 0.333704 0.321991 0.289045 0.299261 0.304072 0.286670 0.289973 0.297706 0.304218 0.304520 0.285142 0.285142 0.285142 0.285142 0.285142 0.270227 0.270227 0.270227 0.270227 0.253697 0.253697 0.253697 0.253697 0.253697 0.280451 0.280451 0.280451 0.280451 0.276469 0.276469 0.276469 0.276469 0.276469 0.279098 0.279098 0.279098 0.279098 0.281655 0.281655 0.281655 0.281655 0.277372 0.277372 0.277372 0.277372 0.277372 0.264329 0.264329
0.000000 0.000000 0.000000 0.000000 0.000000 0.000000 0.000000 0.000000 0.000000 0.000000 0.000000 0.000000 0.000000 0.000000 0.000000 0.000000 0.000000 0.000000 0.000000 0.000000 0.000000 0.000000 0.000000 0.000000 0.348155 0.348155 0.348155 0.348155 0.348155 0.348155 0.417029 0.417029 0.417029 0.417029 0.417029 0.417029 0.417029 0.417029 0.417029 0.417029 0.417029 0.417029 0.417029 0.417029 0.417029 0.436436 0.436436 0.436436 0.436436 0.436436 0.436436 0.417029 0.417029 0.417029 0.417029 0.417029 0.417029 0.436436 0.436436 0.436436 0.436436 0.436436 0.458831 0.458831 0.458831 0.458831 0.458831 0.458831 0.458831 0.458831 0.436436 0.436436 0.436436 0.436436 0.436436 0.436436 0.436436 0.436436 0.417029 0.417029 0.417029 0.417029 0.458831 0.458831 0.458831 0.400000 0.400000 0.400000 0.400000 0.436436 0.436436 0.436436 0.436436 0.436436 0.436436 0.436436 0.436436 0.436436 0.417029 0.417029 0.417029 0.417029 0.417029 0.417029 0.400000 0.400000 0.400000 0.458831 0.458831 0.400000 0.400000 0.400000 0.458831 0.458831 0.384900 0.384900 0.384900 0.436436 0.436436 0.371391 0.371391 0.371391 0.417029 0.417029 0.359211 0.359211 0.359211 0.417029 0.417029 0.400000 0.400000 0.400000 0.400000 0.400000 0.400000 0.338062 0.338062 0.338062 0.384900 0.384900 0.384900 0.384900 0.384900 0.384900 0.371391 0.371391 0.371391 0.371391 0.371391 0.371391 0.359211 0.359211 0.359211 0.359211 0.436436 0.359211 0.359211 0.348155 0.348155 0.348155 0.348155 0.348155 0.348155 0.338062 0.338062 0.417029 0.338062 0.338062 0.328798 0.328798 0.328798 0.328798 0.400000 0.328798 0.328798 0.320256 0.320256 0.384900 0.320256 0.320256 0.312348 0.312348 0.384900 0.312348 0.312348 0.371391 0.304997 0.304997 0.371391 0.304997 0.304997 0.298142 0.298142 0.359211 0.298142 0.298142 0.359211 0.291730 0.291730 0.359211 0.285714 0.285714 0.348155 0.348155 0.285714 0.285714 0.348155 0.280056 0.280056 0.338062 0.338062 0.274721 0.274721 0.338062 0.269680 0.269680 0.328798 0.328798 0.269680 0.269680 0.328798 0.320256 0.264906 0.264906 0.320256 0.320256 0.260378 0.260378 0.312348 0.312348 0.256074 0.256074 0.312348 0.312348 0.304997 0.251976 0.251976 0.304997 0.304997 0.304997 0.244339 0.244339 0.298142 0.298142 0.298142 0.298142 0.240772 0.240772 0.291730 0.291730 0.291730 0.291730 0.234082 0.234082 0.285714 0.285714 0.285714 0.285714 0.280056 0.230940 0.230940 0.280056 0.280056 0.280056 0.274721 0.274721 0.274721 0.274721 0.222222 0.222222 0.269680 0.269680 0.269680 0.269680 0.269680 0.264906 0.264906 0.264906 0.264906 0.264906 0.260378 0.214423 0.214423 0.260378 0.260378 0.260378 0.256074 0.256074 0.256074 0.256074 0.256074 0.251976 0.251976 0.251976 0.251976 0.251976 0.248069 0.248069 0.248069 0.248069 0.248069 0.244339 0.244339 0.244339 0.244339 0.244339 0.240772 0.240772 0.240772 0.240772 0.240772 0.237356 0.237356 0.237356 0.237356 0.237356 0.234082 0.234082 0.234082 0.234082 0.230940 0.230940 0.230940 0.230940 0.230940 0.227921 0.227921 0.227921 0.227921 0.227921 0.225018 0.225018 0.225018 0.225018 0.222222 0.222222 0.222222 0.222222 0.222222 0.219529 0.219529 0.219529 0.219529 0.216930 0.216930 0.216930 0.216930 0.216930 0.214423 0.214423 0.214423 0.214423 0.212000 0.212000 0.212000 0.212000 0.209657 0.209657 0.209657 0.209657 0.209657 0.207390 0.207390
