# Output from CTFFind version 4.1.14, run on 2024-08-30 16:05:31
# Input file: CtfFind/job005/Movies/20170629_00042_frameImage_PS.mrc ; Number of micrographs: 1
# Pixel size: 1.400 Angstroms ; acceleration voltage: 200.0 keV ; spherical aberration: 1.40 mm ; amplitude contrast: 0.10
# Box size: 512 pixels ; min. res.: 30.0 Angstroms ; max. res.: 5.0 Angstroms ; min. def.: 5000.0 um; max. def. 50000.0 um; num. frames averaged: 1
# 6 lines per micrograph: #1 - spatial frequency (1/Angstroms); #2 - 1D rotational average of spectrum (assuming no astigmatism); #3 - 1D rotational average of spectrum; #4 - CTF fit; #5 - cross-correlation between spectrum and CTF fit; #6 - 2sigma of expected cross correlation of noise
0.000000 0.001396 0.002791 0.004187 0.005582 0.006978 0.008373 0.009769 0.011164 0.012560 0.013955 0.015351 0.016746 0.018142 0.019538 0.020933 0.022329 0.023724 0.025120 0.026515 0.027911 0.029306 0.030702 0.032097 0.033493 0.034888 0.036284 0.037680 0.039075 0.040471 0.041866 0.043262 0.044657 0.046053 0.047448 0.048844 0.050239 0.051635 0.053030 0.054426 0.055822 0.057217 0.058613 0.060008 0.061404 0.062799 0.064195 0.065590 0.066986 0.068381 0.069777 0.071172 0.072568 0.073964 0.075359 0.076755 0.078150 0.079546 0.080941 0.082337 0.083732 0.085128 0.086523 0.087919 0.089314 0.090710 0.092106 0.093501 0.094897 0.096292 0.097688 0.099083 0.100479 0.101874 0.103270 0.104665 0.106061 0.107456 0.108852 0.110247 0.111643 0.113039 0.114434 0.115830 0.117225 0.118621 0.120016 0.121412 0.122807 0.124203 0.125598 0.126994 0.128389 0.129785 0.131181 0.132576 0.133972 0.135367 0.136763 0.138158 0.139554 0.140949 0.142345 0.143740 0.145136 0.146531 0.147927 0.149323 0.150718 0.152114 0.153509 0.154905 0.156300 0.157696 0.159091 0.160487 0.161882 0.163278 0.164673 0.166069 0.167465 0.168860 0.170256 0.171651 0.173047 0.174442 0.175838 0.177233 0.178629 0.180024 0.181420 0.182815 0.184211 0.185607 0.187002 0.188398 0.189793 0.191189 0.192584 0.193980 0.195375 0.196771 0.198166 0.199562 0.200957 0.202353 0.203749 0.205144 0.206540 0.207935 0.209331 0.210726 0.212122 0.213517 0.214913 0.216308 0.217704 0.219099 0.220495 0.221891 0.223286 0.224682 0.226077 0.227473 0.228868 0.230264 0.231659 0.233055 0.234450 0.235846 0.237241 0.238637 0.240033 0.241428 0.242824 0.244219 0.245615 0.247010 0.248406 0.249801 0.251197 0.252592 0.253988 0.255383 0.256779 0.258175 0.259570 0.260966 0.262361 0.263757 0.265152 0.266548 0.267943 0.269339 0.270734 0.272130 0.273525 0.274921 0.276317 0.277712 0.279108 0.280503 0.281899 0.283294 0.284690 0.286085 0.287481 0.288876 0.290272 0.291667 0.293063 0.294458 0.295854 0.297250 0.298645 0.300041 0.301436 0.302832 0.304227 0.305623 0.307018 0.308414 0.309809 0.311205 0.312600 0.313996 0.315392 0.316787 0.318183 0.319578 0.320974 0.322369 0.323765 0.325160 0.326556 0.327951 0.329347 0.330742 0.332138 0.333534 0.334929 0.336325 0.337720 0.339116 0.340511 0.341907 0.343302 0.344698 0.346093 0.347489 0.348884 0.350280 0.351676 0.353071 0.354467 0.355862 0.357258 0.358653 0.360049 0.361444 0.362840 0.364235 0.365631 0.367026 0.368422 0.369818 0.371213 0.372609 0.374004 0.375400 0.376795 0.378191 0.379586 0.380982 0.382377 0.383773 0.385168 0.386564 0.387960 0.389355 0.390751 0.392146 0.393542 0.394937 0.396333 0.397728 0.399124 0.400519 0.401915 0.403310 0.404706 0.406102 0.407497 0.408893 0.410288 0.411684 0.413079 0.414475 0.415870 0.417266 0.418661 0.420057 0.421452 0.422848 0.424244 0.425639 0.427035 0.428430 0.429826 0.431221 0.432617 0.434012 0.435408 0.436803 0.438199 0.439594 0.440990 0.442386 0.443781 0.445177 0.446572 0.447968 0.449363 0.450759 0.452154 0.453550 0.454945 0.456341 0.457736 0.459132 0.460528 0.461923 0.463319 0.464714 0.466110 0.467505 0.468901 0.470296 0.471692 0.473087 0.474483 0.475878 0.477274 0.478669 0.480065 0.481461 0.482856 0.484252 0.485647 0.487043 0.488438 0.489834 0.491229 0.492625 0.494020 0.495416 0.496811 0.498207 0.499603 0.500998 0.502394 0.503789 0.505185
      -0.24855       -0.16932       -0.10308       -0.07943       -0.06946       -0.06086       -0.05770       -0.05397       -0.05146       -0.04984       -0.04797       -0.04721       -0.04577       -0.04500       -0.04437       -0.04360       -0.04320       -0.04246       -0.04219       -0.04175       -0.04139       -0.04108       -0.04073       -0.04411       -0.70671       -1.33704       -1.11870       -0.55971        0.17702        0.88618        1.03047        0.56145       -0.32784       -0.89024       -1.09349       -0.84052       -0.12536        0.53814        0.44611       -0.04007       -0.75869       -0.76807       -0.37839        0.18094        0.28969       -0.18555       -0.69859       -0.59298        0.00151        0.31847        0.13380       -0.47982       -0.31350        0.16220        0.43914        0.01402       -0.37628       -0.10855        0.39344        0.28428       -0.23900       -0.12355        0.31854        0.22395       -0.15480       -0.19697        0.29928       -0.00134       -0.44323       -0.18796        0.10812       -0.34738       -0.44580        0.08765       -0.09541       -0.41680        0.02659        0.05256       -0.45188       -0.03779        0.05781       -0.29208        0.01872        0.15965       -0.23258        0.04880        0.11095       -0.21488        0.04053       -0.01800       -0.20808        0.20535       -0.04617        0.04082        0.08477       -0.06701        0.04684       -0.05802       -0.01358        0.05637       -0.00451        0.01929       -0.04410       -0.08633        0.00613       -0.03005       -0.00278       -0.00909       -0.00564       -0.01488       -0.03708       -0.05318       -0.04811       -0.03451       -0.07237       -0.05278       -0.02124       -0.04850       -0.03801       -0.06407       -0.05937       -0.06340       -0.03208       -0.02014        0.02668        0.00079       -0.01813       -0.02569       -0.02652       -0.04583        0.00188       -0.03475       -0.02178       -0.00636        0.01214       -0.02771        0.00584        0.01760       -0.06839       -0.06023       -0.04327       -0.03310       -0.05300       -0.08172       -0.04812       -0.04810       -0.03361       -0.07931       -0.01195       -0.00621       -0.05446        0.01206       -0.00216       -0.04393       -0.01771       -0.03497       -0.00568        0.00756       -0.02128       -0.03722       -0.08356       -0.04072       -0.06948       -0.12296       -0.03121       -0.05940       -0.00284       -0.00646       -0.08345       -0.07355       -0.12844       -0.06442       -0.06929       -0.02455        0.01184       -0.03700       -0.09253       -0.03067       -0.03937        0.01285       -0.01278       -0.01894       -0.01240       -0.06282       -0.01993        0.00506        0.03669       -0.00523       -0.05080       -0.05635       -0.01610       -0.05259       -0.03894       -0.03210       -0.02207       -0.09047       -0.06835       -0.04056       -0.01780       -0.04766       -0.02437       -0.05498       -0.06206       -0.00162       -0.02949       -0.02860       -0.01754       -0.04728       -0.02511        0.01229       -0.02639       -0.04672       -0.04430       -0.04926       -0.05188       -0.04530       -0.07593       -0.04303       -0.03161       -0.01757       -0.02370       -0.00364       -0.08752       -0.06669       -0.05084       -0.01939       -0.06414       -0.01484        0.03325       -0.01432       -0.01405       -0.09072       -0.04403       -0.04095       -0.01859       -0.00600       -0.01986       -0.01091       -0.06467       -0.01504       -0.03090       -0.03034       -0.03987       -0.03939       -0.04333       -0.04613       -0.07329       -0.05192       -0.06175       -0.06789       -0.03450       -0.02665       -0.02417        0.00298       -0.02066       -0.04864       -0.03009       -0.02392       -0.05503       -0.03809       -0.01409       -0.05834       -0.01754       -0.00646       -0.03796       -0.04848       -0.04966       -0.09037        0.01540        0.00529       -0.01034       -0.03047       -0.00610       -0.05580       -0.05014       -0.03946       -0.04546       -0.02178        0.02273       -0.00159       -0.09697       -0.06122       -0.04891       -0.04078       -0.03497       -0.02863       -0.07080       -0.06961       -0.06389       -0.01462       -0.01309       -0.07185       -0.07410       -0.03885       -0.07089       -0.03668       -0.04463       -0.02394        0.00805        0.06434       -0.02871       -0.01003       -0.05066        0.01068        0.09784       -0.06042       -0.01655       -0.04419        0.01812       -0.03060       -0.03853       -0.06103       -0.02814       -0.01778       -0.10271       -0.07440       -0.06401       -0.08390       -0.00099       -0.05690       -0.08969       -0.07413       -0.11406       -0.11584       -0.04733       -0.01407       -0.12129        0.00379       -0.02088       -0.07689       -0.10258       -0.11012       -0.12352       -0.00263       -0.08772       -0.12353        0.00220       -0.10708       -0.02016        0.02146       -0.00286        0.10401        0.09566       -0.05358        0.12314        0.15374       -0.15605       -0.01300        0.06127       -0.00014       -0.05913       -0.17628       -0.07151       -0.11450        0.21192        0.08601       -0.19703        0.22975       -0.01086       -0.25857        0.38623       -0.51167       -1.08154
-0.248550 -0.066469 -0.065990 -0.065194 -0.064078 -0.062644 -0.060890 -0.058819 -0.056428 -0.053719 -0.050691 -0.049346 -0.048104 -0.046755 -0.045298 -0.043911 -0.043394 -0.042844 -0.042261 -0.041829 -0.041500 -0.041154 -0.180994 -0.411536 -0.649173 -0.758102 -0.871474 -0.503953 0.118496 0.517682 0.695205 0.459605 -0.193316 -0.644789 -0.976833 -0.670977 -0.232200 0.264826 0.316427 -0.015780 -0.528011 -0.665041 -0.412423 0.067916 0.144738 -0.106038 -0.609440 -0.545880 -0.112674 0.209475 0.114926 -0.352513 -0.360689 0.104904 0.360236 0.069773 -0.273181 -0.128600 0.278290 0.271206 -0.112359 -0.139658 0.236532 0.243487 -0.116771 -0.228775 0.272056 0.146242 -0.402063 -0.291089 0.102910 -0.268318 -0.562135 0.025497 -0.004292 -0.419674 -0.056266 0.160851 -0.409241 -0.172299 0.215281 -0.281256 -0.113571 0.250871 -0.237975 -0.088534 0.221745 -0.342396 0.018444 0.164213 -0.302756 0.270796 -0.026540 -0.089352 0.207417 -0.130666 0.129882 -0.053455 -0.088370 0.139694 -0.047730 0.038470 -0.061073 -0.092989 0.009009 -0.041136 0.022506 -0.038697 0.008503 -0.002881 0.010613 -0.079718 -0.094051 -0.035828 -0.032812 -0.061562 -0.020947 -0.065565 -0.025499 -0.050457 -0.044745 -0.046319 -0.054523 -0.078976 0.023204 0.041703 -0.000581 -0.057176 -0.029038 -0.026438 0.022080 -0.045900 -0.070937 0.055102 -0.037809 0.008787 -0.042656 0.004139 -0.049485 -0.002801 -0.079826 -0.036346 -0.019353 -0.108944 -0.018068 -0.023798 -0.033608 -0.059956 0.004800 -0.021322 0.000031 -0.030337 -0.028926 0.003972 -0.100457 0.009644 -0.072612 0.055843 -0.030383 -0.015608 -0.046086 -0.033670 -0.098685 -0.105389 -0.045221 -0.127116 -0.058410 0.057445 -0.085454 -0.099113 -0.063089 -0.082508 -0.114939 -0.084844 0.039210 0.026492 -0.057521 -0.107096 -0.005407 -0.018838 0.022996 -0.045775 -0.055500 -0.005709 -0.023121 -0.016823 -0.018714 0.042233 0.013750 -0.066847 -0.075681 -0.060746 -0.026981 -0.018488 -0.059492 -0.030291 -0.097296 -0.049897 0.046484 -0.014619 -0.033469 0.012693 -0.089400 -0.040314 -0.007644 -0.027278 -0.031650 0.021892 -0.046522 -0.013599 -0.001639 -0.049656 -0.030246 -0.016661 -0.037879 -0.077905 0.013106 -0.042064 -0.114666 0.001359 -0.027738 0.002321 -0.026642 -0.184336 0.013801 -0.117288 -0.025122 -0.019791 -0.000552 0.051978 -0.024139 -0.053609 -0.037465 -0.090863 -0.045121 -0.038742 -0.053893 -0.036339 -0.016114 -0.017995 0.022177 -0.056217 -0.037741 0.012448 -0.051386 -0.066851 -0.040713 -0.073596 -0.074617 -0.002786 -0.113057 -0.076223 -0.041498 0.007813 -0.013603 -0.030774 0.013348 -0.034704 -0.012055 -0.135387 -0.145092 -0.008483 -0.038359 -0.043192 -0.041874 -0.026410 -0.085009 -0.074829 -0.095978 0.131990 -0.036850 0.010058 0.023770 0.019944 0.052239 -0.062024 -0.056258 -0.062256 -0.026095 -0.009087 -0.008785 -0.003347 -0.038652 -0.069180 0.016321 -0.086414 -0.098905 -0.032972 -0.122874 0.003059 0.023553 -0.064760 -0.048123 -0.004016 -0.086840 -0.063357 -0.058091 -0.064728 -0.026783 0.060583 -0.089409 -0.042651 0.091404 -0.056115 -0.054737 -0.012807 -0.055639 0.009335 0.128476 -0.059699 -0.071257 -0.001719 -0.121618 -0.069472 0.073254 -0.077820 -0.159619 -0.072333 -0.050157 -0.048793 0.070018 -0.216575 -0.152863 -0.075046 -0.161117 -0.009017 -0.182288 -0.099863 0.070252 -0.203614 -0.043018 -0.120226 -0.135208 0.145052 0.145088 0.010840 -0.060043 -0.164972 -0.263293 -0.163841 0.065089 0.176508 0.273873 0.357127 -0.203111 0.276321 0.345195 -0.193916 0.149868 -0.084651 -0.131706 0.201625 -0.332135 -0.009313 -0.084658 0.027509 0.069129 -0.136773 0.326157 0.040113 -0.127986 0.234446 0.000000
0.100000 0.106149 0.124569 0.155172 0.197760 0.251961 0.317131 0.392236 0.475720 0.565357 0.658115 0.750038 0.836184 0.910634 0.966623 0.996814 0.993760 0.950568 0.861762 0.724320 0.538794 0.310392 0.049829 0.226284 0.495775 0.732200 0.907259 0.994329 0.972903 0.833405 0.581575 0.241330 0.145025 0.520264 0.819838 0.983238 0.967587 0.760768 0.390481 0.074458 0.533342 0.873772 0.999988 0.862891 0.482579 0.046084 0.571332 0.925550 0.980388 0.698577 0.161360 0.445376 0.890106 0.984711 0.670651 0.062107 0.583565 0.968884 0.896156 0.379114 0.338820 0.887765 0.960839 0.495666 0.262018 0.872905 0.955738 0.436364 0.372166 0.941323 0.871174 0.186728 0.639780 0.999843 0.602361 0.269072 0.933332 0.838532 0.038877 0.801068 0.943249 0.237499 0.692505 0.977787 0.324389 0.652705 0.981218 0.305696 0.694400 0.959017 0.179798 0.804116 0.882055 0.059191 0.935929 0.693853 0.397944 0.999641 0.336753 0.763867 0.866103 0.188669 0.991349 0.426718 0.739878 0.853546 0.271913 0.999889 0.231257 0.891804 0.639171 0.617546 0.893362 0.275014 0.994666 0.059738 0.977880 0.342455 0.888749 0.556943 0.769290 0.705624 0.651369 0.800048 0.555997 0.853655 0.495335 0.877236 0.475325 0.876601 0.497622 0.851600 0.560318 0.796169 0.657156 0.699357 0.775571 0.547839 0.894134 0.330444 0.980624 0.045520 0.993028 0.289692 0.886220 0.629960 0.626798 0.898888 0.215965 0.999543 0.286117 0.846136 0.748663 0.415784 0.992703 0.197731 0.862331 0.767436 0.333590 0.999616 0.396333 0.697235 0.933116 0.047824 0.889090 0.792549 0.202934 0.966631 0.670136 0.342134 0.988774 0.613943 0.377224 0.989057 0.640244 0.312037 0.968121 0.741686 0.140491 0.893751 0.883434 0.141708 0.708198 0.991113 0.507210 0.353829 0.946902 0.856352 0.169200 0.625937 0.998205 0.722879 0.003021 0.718902 0.999823 0.700662 0.012448 0.674062 0.995886 0.803354 0.214351 0.469875 0.925578 0.957241 0.570668 0.050975 0.642352 0.971742 0.926837 0.543302 0.025476 0.575868 0.928441 0.983070 0.740163 0.287606 0.235986 0.686428 0.953076 0.982469 0.783161 0.414942 0.032403 0.462782 0.794525 0.974343 0.982570 0.831271 0.556801 0.209609 0.155975 0.490704 0.756305 0.928699 0.998309 0.968400 0.852111 0.668918 0.441234 0.191510 0.060123 0.297025 0.506841 0.681626 0.817523 0.913878 0.972785 0.998139 0.994964 0.968808 0.925257 0.869635 0.806711 0.740639 0.674900 0.612343 0.555117 0.504989 0.463106 0.430436 0.407529 0.394762 0.392329 0.400239 0.418428 0.446528 0.484079 0.530338 0.584220 0.644247 0.708556 0.774567 0.839184 0.898685 0.948641 0.984105 0.999712 0.989977 0.949706 0.874463 0.761200 0.609118 0.420164 0.199780 0.042454 0.292733 0.533616 0.744425 0.903353 0.989601 0.986309 0.883888 0.683152 0.397732 0.054942 0.305145 0.633553 0.878718 0.995043 0.952517 0.745622 0.399170 0.031226 0.465268 0.811999 0.988969 0.943833 0.672586 0.228451 0.283641 0.728773 0.977091 0.944034 0.623525 0.100797 0.463649 0.880032 0.993969 0.748297 0.217510 0.405668 0.874965 0.988315 0.680596 0.068581 0.582601 0.969496 0.894111 0.374424 0.342551 0.888285 0.961774 0.503928 0.245221 0.859482 0.966239 0.481584 0.310563 0.910566 0.915808 0.302765 0.525201 0.989244 0.742049 0.055948 0.818373 0.955096 0.339621 0.554295 0.999247 0.608974 0.305605 0.959801 0.763818 0.126978 0.906233 0.836038 0.037626 0.879908 0.850868 0.041077 0.895756 0.814641
1.000000 1.000000 1.000000 1.000000 1.000000 1.000000 1.000000 1.000000 1.000000 1.000000 1.000000 1.000000 1.000000 1.000000 1.000000 1.000000 1.000000 1.000000 1.000000 1.000000 1.000000 1.000000 1.000000 1.000000 -0.425471 -0.425471 -0.425471 -0.425471 -0.454755 -0.454755 -0.454755 -0.454755 -0.454755 -0.454755 -0.454755 -0.433743 -0.402268 -0.333623 -0.394684 -0.452048 -0.428334 -0.439098 -0.474137 -0.553284 -0.528272 -0.480219 -0.401528 -0.433695 -0.446388 -0.372415 -0.399519 -0.263940 -0.289096 -0.235087 -0.185081 -0.192415 -0.103483 -0.119382 -0.053823 -0.008757 -0.003731 0.059531 0.186467 0.163403 0.224298 0.263606 0.292899 0.307940 0.456033 0.403734 0.444693 0.546599 0.555088 0.616546 0.594619 0.665541 0.667104 0.705905 0.709988 0.812631 0.819146 0.823077 0.853774 0.807084 0.804164 0.794661 0.715821 0.647935 0.654600 0.632467 0.594368 0.538132 0.521236 0.493080 0.451387 0.436266 0.338124 0.128124 0.123523 0.073105 -0.004093 -0.007250 -0.060392 -0.297921 -0.386505 -0.360535 -0.186251 -0.059353 -0.131308 -0.127508 -0.135321 -0.114415 -0.092575 -0.120554 -0.111607 -0.106478 -0.121458 -0.116205 -0.023898 -0.028306 0.038983 0.088115 0.122078 0.140911 0.121691 0.113652 0.100639 -0.012043 -0.169947 -0.033247 -0.028158 -0.026093 -0.039237 -0.048500 -0.065442 -0.191921 -0.249778 -0.265646 -0.260785 -0.308166 -0.380723 -0.276869 -0.433436 -0.378488 -0.378367 -0.335551 -0.323029 -0.327683 -0.468220 -0.252726 -0.245623 -0.179256 -0.196953 -0.162934 -0.152380 -0.328898 -0.108421 -0.060722 -0.227785 -0.119124 -0.209259 -0.243349 -0.283668 -0.045721 -0.322273 -0.312520 -0.147409 -0.303684 -0.256323 0.041508 -0.224013 -0.172306 0.037721 -0.137583 -0.135736 -0.028592 -0.059598 0.115720 -0.037152 0.088463 0.081855 -0.053839 0.034764 0.045668 -0.074941 -0.067704 0.102099 0.102560 -0.153512 -0.133381 0.086668 0.084618 0.014040 0.034956 0.025450 0.081719 0.162352 0.169137 0.048777 0.032139 0.218124 0.186103 0.022210 0.089734 0.209971 0.228671 0.255559 0.176078 0.177287 0.204827 0.230583 0.244030 0.215762 0.227857 0.242266 0.243932 0.237776 0.227666 0.211337 0.209480 0.201496 0.210396 0.200978 0.267115 0.267634 0.210083 0.208837 0.265005 0.251191 0.244095 0.194136 0.191874 0.200599 0.200393 0.189477 0.191372 0.178713 0.186043 0.199338 0.205107 0.204383 0.203406 0.207449 0.219308 0.227720 0.236392 0.236632 0.190835 0.194019 0.206239 0.208975 0.262152 0.263067 0.256721 0.265729 0.270692 0.268576 0.264847 0.266580 0.266396 0.259526 0.280764 0.278704 0.273475 0.230935 0.234465 0.238947 0.239386 0.281940 0.273584 0.272536 0.277516 0.272435 0.270991 0.306726 0.300242 0.303138 0.303927 0.308489 0.312945 0.314856 0.324268 0.287856 0.290711 0.288357 0.291445 0.296281 0.206186 0.199968 0.199867 0.202604 0.169991 0.163598 0.164982 0.166133 0.186969 0.181589 0.182741 0.175307 0.165403 0.148195 0.139703 0.131384 0.132897 0.132354 0.168111 0.171535 0.180844 0.174395 0.156298 0.150042 0.153014 0.109111 0.100805 0.112611 0.140191 0.143599 0.167606 0.167185 0.189450 0.198020 0.179622 0.179622 0.179622 0.179622 0.179622 0.168937 0.168937 0.168937 0.168937 0.158350 0.158350 0.158350 0.158350 0.152837 0.152837 0.152837 0.152837 0.151880 0.151880 0.151880 0.151880 0.154289 0.154289 0.154289 0.158748 0.158748 0.158748 0.158748 0.164105 0.164105 0.164105 0.164105 0.169458 0.169458 0.169458 0.169458 0.174080 0.174080 0.174080 0.174080 0.177258 0.177258
0.000000 0.000000 0.000000 0.000000 0.000000 0.000000 0.000000 0.000000 0.000000 0.000000 0.000000 0.000000 0.000000 0.000000 0.000000 0.000000 0.000000 0.000000 0.000000 0.000000 0.000000 0.000000 0.000000 0.000000 0.359211 0.359211 0.359211 0.359211 0.417029 0.417029 0.417029 0.417029 0.417029 0.417029 0.417029 0.417029 0.458831 0.458831 0.458831 0.458831 0.458831 0.458831 0.436436 0.436436 0.436436 0.436436 0.436436 0.436436 0.458831 0.458831 0.458831 0.458831 0.458831 0.436436 0.436436 0.436436 0.436436 0.436436 0.458831 0.458831 0.458831 0.458831 0.458831 0.458831 0.458831 0.458831 0.436436 0.436436 0.436436 0.436436 0.458831 0.458831 0.458831 0.417029 0.417029 0.417029 0.417029 0.458831 0.458831 0.458831 0.458831 0.458831 0.458831 0.436436 0.436436 0.436436 0.436436 0.436436 0.436436 0.436436 0.436436 0.436436 0.417029 0.417029 0.417029 0.458831 0.458831 0.400000 0.400000 0.400000 0.400000 0.400000 0.400000 0.458831 0.458831 0.458831 0.458831 0.384900 0.384900 0.384900 0.436436 0.436436 0.436436 0.436436 0.371391 0.371391 0.371391 0.417029 0.417029 0.417029 0.417029 0.400000 0.400000 0.400000 0.400000 0.400000 0.400000 0.400000 0.400000 0.384900 0.384900 0.384900 0.384900 0.384900 0.384900 0.371391 0.371391 0.371391 0.371391 0.371391 0.371391 0.436436 0.359211 0.359211 0.359211 0.359211 0.359211 0.359211 0.436436 0.348155 0.348155 0.348155 0.348155 0.338062 0.338062 0.417029 0.338062 0.338062 0.400000 0.328798 0.328798 0.328798 0.328798 0.400000 0.320256 0.320256 0.384900 0.320256 0.320256 0.384900 0.312348 0.312348 0.384900 0.304997 0.304997 0.371391 0.304997 0.304997 0.371391 0.298142 0.298142 0.359211 0.298142 0.298142 0.359211 0.359211 0.291730 0.291730 0.348155 0.348155 0.285714 0.285714 0.348155 0.280056 0.280056 0.338062 0.338062 0.338062 0.274721 0.274721 0.338062 0.328798 0.269680 0.269680 0.328798 0.328798 0.328798 0.264906 0.264906 0.320256 0.320256 0.320256 0.260378 0.260378 0.312348 0.312348 0.312348 0.312348 0.251976 0.251976 0.304997 0.304997 0.304997 0.304997 0.304997 0.244339 0.244339 0.298142 0.298142 0.298142 0.298142 0.291730 0.291730 0.291730 0.237356 0.237356 0.291730 0.285714 0.285714 0.285714 0.285714 0.285714 0.280056 0.280056 0.280056 0.280056 0.280056 0.225018 0.225018 0.274721 0.274721 0.274721 0.274721 0.269680 0.269680 0.269680 0.269680 0.269680 0.264906 0.264906 0.264906 0.264906 0.264906 0.260378 0.260378 0.260378 0.260378 0.260378 0.256074 0.256074 0.256074 0.256074 0.256074 0.251976 0.251976 0.251976 0.251976 0.248069 0.248069 0.248069 0.248069 0.248069 0.244339 0.244339 0.244339 0.244339 0.244339 0.240772 0.240772 0.240772 0.240772 0.237356 0.237356 0.237356 0.237356 0.237356 0.234082 0.234082 0.234082 0.234082 0.230940 0.230940 0.230940 0.230940 0.230940 0.227921 0.227921 0.227921 0.227921 0.225018 0.225018 0.225018 0.225018 0.222222 0.222222 0.222222 0.222222 0.219529 0.219529 0.219529 0.219529 0.216930 0.216930 0.216930 0.216930 0.216930 0.214423 0.214423 0.214423 0.214423 0.212000 0.212000 0.212000 0.212000 0.209657 0.209657 0.209657 0.209657 0.207390 0.207390 0.207390 0.207390 0.205196 0.205196 0.205196 0.203069 0.203069 0.203069 0.203069 0.201008 0.201008 0.201008 0.201008 0.199007 0.199007 0.199007 0.199007 0.197066 0.197066 0.197066 0.197066 0.195180 0.195180
