# Output from CTFFind version 4.1.14, run on 2024-08-30 16:05:31
# Input file: CtfFind/job005/Movies/20170629_00047_frameImage_PS.mrc ; Number of micrographs: 1
# Pixel size: 1.400 Angstroms ; acceleration voltage: 200.0 keV ; spherical aberration: 1.40 mm ; amplitude contrast: 0.10
# Box size: 512 pixels ; min. res.: 30.0 Angstroms ; max. res.: 5.0 Angstroms ; min. def.: 5000.0 um; max. def. 50000.0 um; num. frames averaged: 1
# 6 lines per micrograph: #1 - spatial frequency (1/Angstroms); #2 - 1D rotational average of spectrum (assuming no astigmatism); #3 - 1D rotational average of spectrum; #4 - CTF fit; #5 - cross-correlation between spectrum and CTF fit; #6 - 2sigma of expected cross correlation of noise
0.000000 0.001396 0.002791 0.004187 0.005582 0.006978 0.008373 0.009769 0.011164 0.012560 0.013955 0.015351 0.016746 0.018142 0.019538 0.020933 0.022329 0.023724 0.025120 0.026515 0.027911 0.029306 0.030702 0.032097 0.033493 0.034888 0.036284 0.037680 0.039075 0.040471 0.041866 0.043262 0.044657 0.046053 0.047448 0.048844 0.050239 0.051635 0.053030 0.054426 0.055822 0.057217 0.058613 0.060008 0.061404 0.062799 0.064195 0.065590 0.066986 0.068381 0.069777 0.071172 0.072568 0.073964 0.075359 0.076755 0.078150 0.079546 0.080941 0.082337 0.083732 0.085128 0.086523 0.087919 0.089314 0.090710 0.092106 0.093501 0.094897 0.096292 0.097688 0.099083 0.100479 0.101874 0.103270 0.104665 0.106061 0.107456 0.108852 0.110247 0.111643 0.113039 0.114434 0.115830 0.117225 0.118621 0.120016 0.121412 0.122807 0.124203 0.125598 0.126994 0.128389 0.129785 0.131181 0.132576 0.133972 0.135367 0.136763 0.138158 0.139554 0.140949 0.142345 0.143740 0.145136 0.146531 0.147927 0.149323 0.150718 0.152114 0.153509 0.154905 0.156300 0.157696 0.159091 0.160487 0.161882 0.163278 0.164673 0.166069 0.167465 0.168860 0.170256 0.171651 0.173047 0.174442 0.175838 0.177233 0.178629 0.180024 0.181420 0.182815 0.184211 0.185607 0.187002 0.188398 0.189793 0.191189 0.192584 0.193980 0.195375 0.196771 0.198166 0.199562 0.200957 0.202353 0.203749 0.205144 0.206540 0.207935 0.209331 0.210726 0.212122 0.213517 0.214913 0.216308 0.217704 0.219099 0.220495 0.221891 0.223286 0.224682 0.226077 0.227473 0.228868 0.230264 0.231659 0.233055 0.234450 0.235846 0.237241 0.238637 0.240033 0.241428 0.242824 0.244219 0.245615 0.247010 0.248406 0.249801 0.251197 0.252592 0.253988 0.255383 0.256779 0.258175 0.259570 0.260966 0.262361 0.263757 0.265152 0.266548 0.267943 0.269339 0.270734 0.272130 0.273525 0.274921 0.276317 0.277712 0.279108 0.280503 0.281899 0.283294 0.284690 0.286085 0.287481 0.288876 0.290272 0.291667 0.293063 0.294458 0.295854 0.297250 0.298645 0.300041 0.301436 0.302832 0.304227 0.305623 0.307018 0.308414 0.309809 0.311205 0.312600 0.313996 0.315392 0.316787 0.318183 0.319578 0.320974 0.322369 0.323765 0.325160 0.326556 0.327951 0.329347 0.330742 0.332138 0.333534 0.334929 0.336325 0.337720 0.339116 0.340511 0.341907 0.343302 0.344698 0.346093 0.347489 0.348884 0.350280 0.351676 0.353071 0.354467 0.355862 0.357258 0.358653 0.360049 0.361444 0.362840 0.364235 0.365631 0.367026 0.368422 0.369818 0.371213 0.372609 0.374004 0.375400 0.376795 0.378191 0.379586 0.380982 0.382377 0.383773 0.385168 0.386564 0.387960 0.389355 0.390751 0.392146 0.393542 0.394937 0.396333 0.397728 0.399124 0.400519 0.401915 0.403310 0.404706 0.406102 0.407497 0.408893 0.410288 0.411684 0.413079 0.414475 0.415870 0.417266 0.418661 0.420057 0.421452 0.422848 0.424244 0.425639 0.427035 0.428430 0.429826 0.431221 0.432617 0.434012 0.435408 0.436803 0.438199 0.439594 0.440990 0.442386 0.443781 0.445177 0.446572 0.447968 0.449363 0.450759 0.452154 0.453550 0.454945 0.456341 0.457736 0.459132 0.460528 0.461923 0.463319 0.464714 0.466110 0.467505 0.468901 0.470296 0.471692 0.473087 0.474483 0.475878 0.477274 0.478669 0.480065 0.481461 0.482856 0.484252 0.485647 0.487043 0.488438 0.489834 0.491229 0.492625 0.494020 0.495416 0.496811 0.498207 0.499603 0.500998 0.502394 0.503789 0.505185
      -0.12875       -0.07485       -0.02978       -0.01369       -0.00690       -0.00106        0.00110        0.00363        0.00534        0.00644        0.00771        0.00823        0.00921        0.00973        0.01017        0.01069        0.01096        0.01146        0.01165        0.01195        0.01219        0.01241        0.01264        0.01657        0.21034       -0.16800       -0.79546       -1.19221       -0.97924       -0.36571        0.08243        0.61943        0.63448        0.45005       -0.04993       -0.55539       -0.71675       -0.62578       -0.27840        0.21423        0.53815        0.18540       -0.30771       -0.61365       -0.59188       -0.04663        0.38314        0.27919       -0.09591       -0.41066       -0.32383        0.10785        0.34036        0.34990       -0.03067       -0.05540        0.07935        0.39699        0.44049        0.07837       -0.22250       -0.03907        0.31803        0.07796       -0.20812       -0.16586        0.14113        0.20255       -0.10510       -0.25950        0.04581        0.18855       -0.21802       -0.27511       -0.06372        0.12552       -0.11896       -0.20535        0.19405        0.13400       -0.19583       -0.00323        0.24074       -0.02680       -0.06969        0.11485       -0.05256       -0.20064        0.09115        0.09212       -0.16417        0.11083        0.11024       -0.16732        0.20310        0.22535       -0.07582        0.14678        0.05540       -0.08286        0.12352        0.03723       -0.04009        0.14786       -0.04268        0.07681        0.03576       -0.16361        0.04820       -0.04597       -0.01906        0.02861       -0.09795       -0.00905        0.00828       -0.03216        0.09204        0.01789        0.02115        0.00427       -0.00742        0.00336        0.09850        0.10816        0.08855        0.01967        0.06092        0.01137        0.00738        0.01100        0.03826        0.01665       -0.02570        0.00145        0.01611        0.03249        0.04319       -0.02458        0.00185       -0.00874        0.03978       -0.01555       -0.00914        0.03103        0.03249        0.05491        0.01296        0.02679       -0.03435       -0.02285        0.00697        0.03638        0.00540        0.01384       -0.03090        0.02131       -0.01273        0.03106        0.00149        0.05221        0.02980        0.01790        0.03360        0.06766        0.08164        0.04229       -0.00011        0.01637       -0.06988       -0.02641        0.01865        0.04917        0.04891        0.01613        0.01438        0.00753       -0.00929        0.03295        0.00255       -0.06915       -0.00556        0.03030        0.02781        0.03033        0.02661       -0.00060       -0.01576       -0.00708        0.02408        0.03686       -0.02180        0.00827        0.00057        0.01503        0.00616       -0.00333       -0.00744        0.01357        0.02818        0.02728        0.01225        0.02904       -0.00893        0.06296        0.03631        0.03789        0.04506        0.02502       -0.00042        0.03883       -0.00488        0.00532        0.05091        0.05525        0.00216       -0.04892        0.01863        0.01085        0.00092        0.02630        0.00946       -0.00904       -0.00077        0.00799        0.02038        0.03978        0.02434        0.02519        0.03301        0.02509       -0.00997       -0.00035        0.03244       -0.00922        0.00985       -0.00123       -0.00046        0.00392        0.04795        0.06253        0.01656       -0.06246       -0.01980       -0.00820        0.01205        0.05356        0.02933        0.00430        0.01919        0.04352        0.03430        0.01980        0.03890        0.03604        0.04363       -0.00365        0.01220        0.02067       -0.00278        0.01240        0.01706        0.00225       -0.00041        0.02984        0.05520        0.05397        0.00278        0.00819       -0.02990       -0.01931        0.03031        0.02535        0.00488        0.04475        0.06465        0.01902        0.02902        0.01544       -0.02028       -0.00401        0.03054        0.00554        0.03208        0.01361       -0.02700        0.02307        0.06542        0.05449       -0.03661       -0.05485        0.03337        0.05637       -0.02559       -0.06937        0.03743        0.09427        0.03576        0.02769        0.05407        0.03192        0.04021       -0.08869       -0.03018        0.03760        0.02405        0.06273        0.05741        0.03547        0.02779        0.01930        0.06041        0.03626       -0.03095        0.02039        0.04252       -0.02551       -0.03997        0.03592       -0.02827       -0.03187        0.04028       -0.02252        0.05200        0.02320        0.07602        0.03566       -0.00531        0.06087       -0.08799        0.00183        0.04089       -0.10271       -0.00822        0.16837        0.12228       -0.01942       -0.00459       -0.00947       -0.08522       -0.08346       -0.00359       -0.06407        0.11555       -0.01158        0.15394        0.15474        0.15556        0.09519       -0.00848        0.03479       -0.04846       -0.01629       -0.08592       -0.01401       -0.14132        0.03905        0.11809        0.04552       -0.12830       -0.25657       -0.16053        0.00564        0.55954
-0.128753 -0.004824 -0.004499 -0.003958 -0.003200 -0.002226 -0.001036 0.000371 0.001995 0.003835 0.005892 0.006710 0.007580 0.008526 0.009547 0.010484 0.010833 0.011203 0.011596 0.012006 0.012433 0.012883 0.016769 0.022809 0.021563 -0.329329 -0.694533 -0.786061 -0.731997 -0.458184 0.047751 0.373917 0.500618 0.343649 -0.011981 -0.373322 -0.681826 -0.552924 -0.264075 0.187260 0.322984 0.185799 -0.256354 -0.523522 -0.466507 -0.150878 0.332630 0.244605 -0.054150 -0.308911 -0.296827 0.050852 0.302662 0.320196 0.060628 -0.047202 0.059300 0.334348 0.415938 0.126211 -0.142020 -0.055713 0.216872 0.151922 -0.162865 -0.228303 0.130892 0.259544 -0.067317 -0.257991 -0.044070 0.179367 -0.142873 -0.340356 -0.109633 0.127864 -0.085512 -0.291661 0.138809 0.199700 -0.237580 -0.082605 0.273174 0.069026 -0.169662 0.168812 0.074488 -0.312247 0.015928 0.220846 -0.199728 0.011287 0.300005 -0.292429 0.125122 0.465698 -0.247436 0.139352 0.276801 -0.352189 0.293949 0.083007 -0.210570 0.356003 -0.170320 -0.040601 0.247210 -0.343191 0.110618 0.035624 -0.200888 0.241399 -0.263057 0.049025 0.030929 -0.091721 0.160613 -0.071155 0.080424 -0.027951 0.107311 -0.084317 0.007524 0.154449 0.020360 0.053332 0.007374 0.079097 -0.006386 -0.037804 0.029976 0.030972 -0.024585 0.055155 -0.036041 0.083992 0.073891 -0.014690 -0.016887 0.009950 0.059857 -0.022433 0.024610 -0.014668 0.014686 0.053857 0.040446 0.047621 -0.088379 0.015993 -0.011112 0.003002 -0.002178 0.029065 0.052691 -0.045936 0.015507 -0.024154 -0.005575 -0.029778 0.112517 -0.019881 0.041267 -0.004843 0.114718 -0.006689 0.069809 0.035979 -0.053174 -0.033868 -0.020778 -0.046907 0.070130 0.031645 0.027570 -0.029076 0.011883 0.062903 -0.053328 -0.069355 0.024812 -0.018177 0.048717 -0.005593 0.095309 -0.073667 0.020801 0.000125 -0.000041 0.010754 -0.044071 -0.016030 0.019029 -0.019364 -0.017340 0.036234 0.015823 -0.023487 0.028225 0.046432 0.042109 0.021317 0.002729 0.033619 0.085042 0.077126 0.063175 -0.050107 0.037230 0.015345 -0.052119 0.046668 0.059974 0.022569 0.025392 0.016235 -0.020653 0.020711 0.033410 0.005705 -0.000213 0.027100 -0.071228 0.053419 -0.003375 0.046470 -0.011780 0.050884 0.020973 0.001468 -0.049386 0.021564 -0.018790 0.092694 -0.011402 0.012758 0.008291 -0.010340 0.067255 0.050798 -0.000595 -0.003660 0.068613 0.034549 -0.027166 -0.043061 -0.000088 -0.033381 0.069317 0.059016 -0.043534 0.071932 0.084132 0.014687 0.091202 0.028515 0.010965 -0.044660 0.168571 -0.069592 0.034748 -0.010786 -0.017945 -0.061843 0.028787 0.046636 -0.014706 0.036960 0.003102 -0.020930 0.046964 -0.000349 0.084718 0.108519 -0.026188 0.028396 0.069487 0.011479 0.019621 0.142846 0.038344 0.017729 -0.046186 -0.026011 0.072664 0.102283 -0.053858 -0.019223 -0.043249 0.035709 -0.061243 0.072932 -0.015384 -0.039637 0.035905 0.100220 -0.041562 0.171412 -0.029173 -0.009082 0.077035 0.133599 0.070915 -0.047698 0.075819 0.111489 0.128240 0.013296 -0.024677 -0.032820 0.103588 0.108810 0.021090 0.044384 -0.016589 -0.050677 0.015623 0.002332 -0.135706 -0.064831 -0.057953 0.054068 0.077360 -0.012111 0.096246 0.042216 0.190884 0.227569 -0.074589 0.043310 -0.018859 0.065607 0.129058 0.021076 -0.057650 -0.086450 0.050492 0.044524 -0.007836 0.211728 -0.150175 -0.084326 -0.103488 0.021455 0.340635 0.219044 0.311090 -0.180944 0.165284 0.225982 -0.041241 0.096169 -0.094751 0.116921 0.085886 -0.107615 -0.007076 -0.051993 0.329886 -0.004475 0.279413 0.058795 -0.601472
0.100000 0.105446 0.121766 0.148889 0.186670 0.234835 0.292917 0.360173 0.435488 0.517269 0.603340 0.690845 0.776178 0.854949 0.922022 0.971633 0.997617 0.993777 0.954379 0.874798 0.752284 0.586783 0.381757 0.144857 0.111668 0.371026 0.612536 0.813042 0.949107 0.999964 0.950961 0.797105 0.546104 0.220175 0.144148 0.498815 0.789958 0.966232 0.988808 0.841334 0.537545 0.124054 0.323758 0.713649 0.955281 0.982631 0.774795 0.368800 0.141396 0.622845 0.936947 0.980986 0.725830 0.235854 0.340034 0.809269 0.999779 0.827178 0.338582 0.289920 0.810260 0.999382 0.760066 0.179314 0.491426 0.938627 0.934617 0.462237 0.254210 0.844406 0.981249 0.570130 0.173495 0.822784 0.980408 0.530237 0.262514 0.891655 0.929990 0.330948 0.506068 0.987004 0.746357 0.057867 0.824440 0.949058 0.311949 0.586375 0.999946 0.560410 0.372245 0.979618 0.699782 0.231556 0.950007 0.756501 0.182228 0.944232 0.746995 0.228058 0.967331 0.668295 0.365406 0.996805 0.499651 0.577070 0.981348 0.215748 0.815268 0.845220 0.184143 0.983366 0.513916 0.632451 0.939676 0.024266 0.958288 0.559024 0.632636 0.919872 0.131494 0.991745 0.369349 0.815430 0.748389 0.486050 0.955137 0.104292 0.996720 0.253041 0.913113 0.542461 0.754358 0.750089 0.565631 0.882116 0.380536 0.955053 0.220379 0.988151 0.096474 0.998760 0.013617 0.999929 0.026867 0.999514 0.024845 0.999969 0.019617 0.998332 0.106317 0.986277 0.233606 0.950392 0.396231 0.873192 0.582118 0.735662 0.769156 0.522121 0.923054 0.227806 0.998530 0.131498 0.946525 0.510427 0.729389 0.831378 0.343368 0.994875 0.157773 0.909525 0.651339 0.539839 0.964146 0.043549 0.933706 0.643638 0.503832 0.984891 0.189231 0.844465 0.813718 0.222668 0.983557 0.563128 0.518977 0.994144 0.333018 0.698367 0.953980 0.173507 0.787720 0.918148 0.102435 0.812111 0.914304 0.123768 0.780377 0.944899 0.236348 0.681484 0.987694 0.431338 0.489463 0.993719 0.678760 0.179560 0.889774 0.908077 0.240514 0.599311 0.998603 0.687916 0.096041 0.808021 0.979191 0.516109 0.268311 0.879767 0.955883 0.470012 0.280083 0.865878 0.973909 0.563977 0.132946 0.755039 0.999996 0.765314 0.178559 0.481490 0.922342 0.965099 0.608564 0.012778 0.579912 0.945778 0.960933 0.635894 0.097832 0.464542 0.869513 0.999012 0.827873 0.420746 0.096579 0.579225 0.903907 0.998257 0.852441 0.513738 0.068331 0.382822 0.747396 0.959570 0.989352 0.843214 0.557708 0.188818 0.200480 0.551145 0.816774 0.968209 0.995055 0.903932 0.714756 0.456003 0.159861 0.142120 0.422225 0.658955 0.837773 0.951209 0.998231 0.982952 0.913259 0.799425 0.652696 0.484448 0.305118 0.123718 0.052231 0.217099 0.366946 0.499449 0.613509 0.709216 0.787433 0.849621 0.897556 0.933317 0.958950 0.976462 0.987727 0.994397 0.997918 0.999464 0.999945 0.999998 0.999986 0.999999 0.999855 0.999101 0.997007 0.992591 0.984609 0.971559 0.951754 0.923312 0.884258 0.832552 0.766320 0.683941 0.584032 0.466051 0.330357 0.178124 0.012139 0.163403 0.342726 0.518223 0.680955 0.820736 0.926750 0.988318 0.996084 0.943000 0.825706 0.645866 0.411030 0.135438 0.160394 0.450543 0.705232 0.894542 0.991608 0.977346 0.844383 0.600508 0.270360 0.105562 0.474485 0.778426 0.963280 0.989631 0.842372 0.537644 0.124195 0.321810 0.709530 0.951782 0.986012 0.792668 0.405908 0.088026 0.567351 0.903275 0.995985 0.807134 0.378736 0.170556 0.674337
1.000000 1.000000 1.000000 1.000000 1.000000 1.000000 1.000000 1.000000 1.000000 1.000000 1.000000 1.000000 1.000000 1.000000 1.000000 1.000000 1.000000 1.000000 1.000000 1.000000 1.000000 1.000000 1.000000 1.000000 -0.565146 -0.565146 -0.565146 -0.565146 -0.565146 -0.565146 -0.509108 -0.509108 -0.509108 -0.509108 -0.509108 -0.504148 -0.486679 -0.451513 -0.452042 -0.474235 -0.483157 -0.423275 -0.462548 -0.513978 -0.524605 -0.639592 -0.661330 -0.639078 -0.637273 -0.503208 -0.565990 -0.544512 -0.557315 -0.500868 -0.509912 -0.475858 -0.459662 -0.451579 -0.470423 -0.405205 -0.388304 -0.383792 -0.310277 -0.358895 -0.286914 -0.263328 -0.208555 -0.240356 -0.228751 -0.219422 -0.246968 -0.277053 -0.228027 -0.227814 -0.204858 -0.167562 -0.142236 -0.161389 -0.146304 -0.088482 -0.109439 -0.066005 -0.121228 -0.074812 0.034017 0.057071 0.085044 0.240619 0.294985 0.306553 0.397691 0.410886 0.547580 0.574596 0.612141 0.681129 0.683032 0.761799 0.767292 0.802831 0.831213 0.857792 0.830246 0.863065 0.891956 0.899645 0.851873 0.787717 0.665553 0.552506 0.489259 0.496046 0.459499 0.356977 0.235366 0.255652 0.267512 0.104548 0.067679 0.148855 0.154972 0.144900 -0.047463 -0.089679 -0.071732 -0.107066 -0.075051 -0.116762 -0.165384 -0.315717 -0.319920 -0.354647 -0.373584 -0.278014 -0.150489 -0.166597 -0.126121 -0.024807 0.032687 0.067339 0.138016 0.054907 0.063419 0.101937 0.077771 0.116616 0.152236 0.199724 0.122999 0.205847 0.210158 0.197320 0.239544 0.291425 0.227616 0.185272 0.217770 0.219397 0.222659 0.279450 0.340178 0.419272 0.398593 0.209099 0.250168 0.267861 0.259985 0.258725 0.243239 0.179377 0.147568 0.143830 0.085511 0.149354 0.182464 0.114973 0.212395 0.198790 0.214430 0.220468 0.034636 0.119241 0.075449 0.059389 0.069599 0.039449 0.033085 0.052020 0.034547 0.027799 0.014836 -0.068293 0.012323 0.019227 -0.024377 -0.014920 -0.029034 0.172114 -0.025305 -0.037425 0.026961 -0.055655 -0.033856 -0.070713 -0.068527 -0.012635 0.016554 -0.047766 0.006853 -0.009315 -0.027723 -0.032272 -0.050340 -0.038727 -0.107290 0.023490 -0.000433 -0.126139 -0.114506 0.024354 0.035502 -0.057847 -0.034643 0.031999 0.024039 0.005021 0.016695 0.040556 -0.013417 -0.014431 0.011244 -0.000168 0.052772 0.044001 -0.018126 -0.029285 0.046846 0.082967 0.097003 0.093399 0.111889 0.163803 0.071347 0.071215 0.153323 0.149206 0.171100 0.147900 0.059204 0.065068 0.181433 0.159654 0.139742 0.146621 0.149866 0.170859 0.168968 0.210816 0.222274 0.237127 0.239324 0.234059 0.260534 0.158635 0.158087 0.252494 0.243253 0.229974 0.217631 0.199542 0.224051 0.224020 0.219041 0.251988 0.161964 0.168813 0.213513 0.191273 0.191649 0.188722 0.179506 0.173635 0.167754 0.163222 0.185872 0.190512 0.197647 0.205067 0.208023 0.208682 0.212861 0.210871 0.206859 0.222347 0.215142 0.206118 0.208847 0.214699 0.232930 0.236156 0.224982 0.222935 0.218376 0.243320 0.235928 0.235179 0.236573 0.239650 0.222928 0.226933 0.242549 0.245420 0.250544 0.253114 0.254773 0.271737 0.264329 0.260650 0.261643 0.262056 0.227715 0.219338 0.214932 0.215540 0.212270 0.211715 0.211715 0.211715 0.211715 0.215841 0.215841 0.215841 0.215841 0.215841 0.218406 0.218406 0.218406 0.218406 0.221739 0.221739 0.221739 0.221739 0.221739 0.220441 0.220441 0.220441 0.220441 0.213209 0.213209 0.213209 0.213209 0.225984 0.225984 0.225984 0.225984 0.225984 0.224413 0.224413 0.224413 0.224413 0.227321 0.227321 0.227321
0.000000 0.000000 0.000000 0.000000 0.000000 0.000000 0.000000 0.000000 0.000000 0.000000 0.000000 0.000000 0.000000 0.000000 0.000000 0.000000 0.000000 0.000000 0.000000 0.000000 0.000000 0.000000 0.000000 0.000000 0.348155 0.348155 0.348155 0.348155 0.348155 0.348155 0.417029 0.417029 0.417029 0.417029 0.417029 0.417029 0.417029 0.417029 0.417029 0.417029 0.417029 0.417029 0.417029 0.417029 0.417029 0.436436 0.436436 0.436436 0.436436 0.436436 0.436436 0.417029 0.417029 0.417029 0.417029 0.417029 0.417029 0.458831 0.458831 0.458831 0.458831 0.436436 0.436436 0.436436 0.436436 0.436436 0.458831 0.458831 0.458831 0.458831 0.436436 0.436436 0.436436 0.436436 0.436436 0.436436 0.436436 0.436436 0.417029 0.417029 0.417029 0.417029 0.458831 0.458831 0.458831 0.458831 0.458831 0.458831 0.400000 0.400000 0.400000 0.400000 0.436436 0.436436 0.436436 0.436436 0.436436 0.436436 0.417029 0.417029 0.417029 0.417029 0.417029 0.417029 0.458831 0.458831 0.400000 0.400000 0.400000 0.400000 0.400000 0.400000 0.458831 0.458831 0.384900 0.384900 0.384900 0.436436 0.436436 0.371391 0.371391 0.371391 0.417029 0.417029 0.417029 0.417029 0.359211 0.359211 0.359211 0.400000 0.400000 0.400000 0.400000 0.400000 0.400000 0.400000 0.400000 0.384900 0.384900 0.384900 0.384900 0.328798 0.328798 0.328798 0.371391 0.371391 0.371391 0.371391 0.458831 0.359211 0.359211 0.359211 0.359211 0.359211 0.359211 0.359211 0.359211 0.348155 0.348155 0.348155 0.348155 0.348155 0.348155 0.417029 0.338062 0.338062 0.338062 0.338062 0.328798 0.328798 0.400000 0.328798 0.328798 0.328798 0.328798 0.400000 0.320256 0.320256 0.320256 0.320256 0.384900 0.312348 0.312348 0.384900 0.304997 0.304997 0.304997 0.304997 0.371391 0.304997 0.304997 0.371391 0.298142 0.298142 0.359211 0.291730 0.291730 0.359211 0.291730 0.291730 0.348155 0.285714 0.285714 0.348155 0.348155 0.280056 0.280056 0.338062 0.280056 0.280056 0.338062 0.338062 0.274721 0.274721 0.328798 0.269680 0.269680 0.328798 0.328798 0.264906 0.264906 0.320256 0.320256 0.260378 0.260378 0.320256 0.320256 0.312348 0.256074 0.256074 0.312348 0.312348 0.251976 0.251976 0.304997 0.304997 0.304997 0.248069 0.248069 0.304997 0.298142 0.298142 0.244339 0.244339 0.298142 0.298142 0.291730 0.291730 0.237356 0.237356 0.291730 0.291730 0.285714 0.285714 0.285714 0.234082 0.234082 0.285714 0.280056 0.280056 0.280056 0.280056 0.280056 0.225018 0.225018 0.274721 0.274721 0.274721 0.274721 0.269680 0.269680 0.269680 0.269680 0.269680 0.216930 0.216930 0.264906 0.264906 0.264906 0.264906 0.260378 0.260378 0.260378 0.260378 0.260378 0.256074 0.256074 0.256074 0.256074 0.256074 0.251976 0.251976 0.251976 0.251976 0.251976 0.248069 0.248069 0.248069 0.203069 0.203069 0.244339 0.244339 0.244339 0.244339 0.244339 0.240772 0.240772 0.240772 0.240772 0.240772 0.237356 0.237356 0.237356 0.237356 0.237356 0.234082 0.234082 0.234082 0.234082 0.234082 0.230940 0.230940 0.230940 0.230940 0.230940 0.227921 0.227921 0.227921 0.227921 0.225018 0.225018 0.225018 0.225018 0.225018 0.222222 0.222222 0.222222 0.222222 0.219529 0.219529 0.219529 0.219529 0.219529 0.216930 0.216930 0.216930 0.216930 0.214423 0.214423 0.214423 0.214423 0.212000 0.212000 0.212000 0.212000 0.212000 0.209657 0.209657 0.209657 0.209657 0.207390 0.207390 0.207390
