# Output from CTFFind version 4.1.14, run on 2024-08-30 16:05:31
# Input file: CtfFind/job005/Movies/20170629_00036_frameImage_PS.mrc ; Number of micrographs: 1
# Pixel size: 1.400 Angstroms ; acceleration voltage: 200.0 keV ; spherical aberration: 1.40 mm ; amplitude contrast: 0.10
# Box size: 512 pixels ; min. res.: 30.0 Angstroms ; max. res.: 5.0 Angstroms ; min. def.: 5000.0 um; max. def. 50000.0 um; num. frames averaged: 1
# 6 lines per micrograph: #1 - spatial frequency (1/Angstroms); #2 - 1D rotational average of spectrum (assuming no astigmatism); #3 - 1D rotational average of spectrum; #4 - CTF fit; #5 - cross-correlation between spectrum and CTF fit; #6 - 2sigma of expected cross correlation of noise
0.000000 0.001396 0.002791 0.004187 0.005582 0.006978 0.008373 0.009769 0.011164 0.012560 0.013955 0.015351 0.016746 0.018142 0.019538 0.020933 0.022329 0.023724 0.025120 0.026515 0.027911 0.029306 0.030702 0.032097 0.033493 0.034888 0.036284 0.037680 0.039075 0.040471 0.041866 0.043262 0.044657 0.046053 0.047448 0.048844 0.050239 0.051635 0.053030 0.054426 0.055822 0.057217 0.058613 0.060008 0.061404 0.062799 0.064195 0.065590 0.066986 0.068381 0.069777 0.071172 0.072568 0.073964 0.075359 0.076755 0.078150 0.079546 0.080941 0.082337 0.083732 0.085128 0.086523 0.087919 0.089314 0.090710 0.092106 0.093501 0.094897 0.096292 0.097688 0.099083 0.100479 0.101874 0.103270 0.104665 0.106061 0.107456 0.108852 0.110247 0.111643 0.113039 0.114434 0.115830 0.117225 0.118621 0.120016 0.121412 0.122807 0.124203 0.125598 0.126994 0.128389 0.129785 0.131181 0.132576 0.133972 0.135367 0.136763 0.138158 0.139554 0.140949 0.142345 0.143740 0.145136 0.146531 0.147927 0.149323 0.150718 0.152114 0.153509 0.154905 0.156300 0.157696 0.159091 0.160487 0.161882 0.163278 0.164673 0.166069 0.167465 0.168860 0.170256 0.171651 0.173047 0.174442 0.175838 0.177233 0.178629 0.180024 0.181420 0.182815 0.184211 0.185607 0.187002 0.188398 0.189793 0.191189 0.192584 0.193980 0.195375 0.196771 0.198166 0.199562 0.200957 0.202353 0.203749 0.205144 0.206540 0.207935 0.209331 0.210726 0.212122 0.213517 0.214913 0.216308 0.217704 0.219099 0.220495 0.221891 0.223286 0.224682 0.226077 0.227473 0.228868 0.230264 0.231659 0.233055 0.234450 0.235846 0.237241 0.238637 0.240033 0.241428 0.242824 0.244219 0.245615 0.247010 0.248406 0.249801 0.251197 0.252592 0.253988 0.255383 0.256779 0.258175 0.259570 0.260966 0.262361 0.263757 0.265152 0.266548 0.267943 0.269339 0.270734 0.272130 0.273525 0.274921 0.276317 0.277712 0.279108 0.280503 0.281899 0.283294 0.284690 0.286085 0.287481 0.288876 0.290272 0.291667 0.293063 0.294458 0.295854 0.297250 0.298645 0.300041 0.301436 0.302832 0.304227 0.305623 0.307018 0.308414 0.309809 0.311205 0.312600 0.313996 0.315392 0.316787 0.318183 0.319578 0.320974 0.322369 0.323765 0.325160 0.326556 0.327951 0.329347 0.330742 0.332138 0.333534 0.334929 0.336325 0.337720 0.339116 0.340511 0.341907 0.343302 0.344698 0.346093 0.347489 0.348884 0.350280 0.351676 0.353071 0.354467 0.355862 0.357258 0.358653 0.360049 0.361444 0.362840 0.364235 0.365631 0.367026 0.368422 0.369818 0.371213 0.372609 0.374004 0.375400 0.376795 0.378191 0.379586 0.380982 0.382377 0.383773 0.385168 0.386564 0.387960 0.389355 0.390751 0.392146 0.393542 0.394937 0.396333 0.397728 0.399124 0.400519 0.401915 0.403310 0.404706 0.406102 0.407497 0.408893 0.410288 0.411684 0.413079 0.414475 0.415870 0.417266 0.418661 0.420057 0.421452 0.422848 0.424244 0.425639 0.427035 0.428430 0.429826 0.431221 0.432617 0.434012 0.435408 0.436803 0.438199 0.439594 0.440990 0.442386 0.443781 0.445177 0.446572 0.447968 0.449363 0.450759 0.452154 0.453550 0.454945 0.456341 0.457736 0.459132 0.460528 0.461923 0.463319 0.464714 0.466110 0.467505 0.468901 0.470296 0.471692 0.473087 0.474483 0.475878 0.477274 0.478669 0.480065 0.481461 0.482856 0.484252 0.485647 0.487043 0.488438 0.489834 0.491229 0.492625 0.494020 0.495416 0.496811 0.498207 0.499603 0.500998 0.502394 0.503789 0.505185
      -0.23175       -0.15326       -0.08764       -0.06422       -0.05433       -0.04582       -0.04268       -0.03899       -0.03650       -0.03490       -0.03305       -0.03230       -0.03086       -0.03011       -0.02947       -0.02872       -0.02832       -0.02759       -0.02732       -0.02688       -0.02653       -0.02622       -0.02587       -0.02995       -0.59734       -0.93621       -0.89651       -0.36356        0.14071        0.85232        0.51491        0.24719       -0.32680       -0.87713       -0.89426       -0.58191        0.04601        0.47961        0.26727       -0.20807       -0.68030       -0.60715       -0.30894        0.20765        0.21919       -0.12993       -0.38586       -0.32610        0.22873        0.35378        0.08749       -0.30743       -0.19904        0.14398        0.27557        0.00737       -0.24789        0.11674        0.40092        0.18208       -0.16902       -0.04367        0.27511        0.10013       -0.30192        0.02516        0.26327       -0.16710       -0.32448        0.05356        0.07405       -0.38067       -0.18942        0.07829       -0.20842       -0.24252        0.07859       -0.10967       -0.38817        0.10019       -0.07464       -0.28622        0.11968        0.02286       -0.19210        0.18152       -0.02603       -0.07736        0.05654       -0.13243       -0.00369        0.07374       -0.13468        0.06112        0.02110       -0.12137        0.03287       -0.01051        0.01417        0.01366        0.04269        0.05073        0.04084       -0.01204        0.01883        0.05443        0.05060       -0.05682       -0.01811       -0.00859       -0.02528       -0.00929       -0.05924       -0.02362       -0.00426       -0.01879       -0.06097       -0.04232       -0.05520       -0.03595       -0.04992       -0.04391       -0.04732       -0.03225        0.02284        0.00261        0.02514        0.00109       -0.06743       -0.04953       -0.07207       -0.02595        0.00136        0.02036        0.00061       -0.01190        0.02519        0.02224        0.00615        0.02405       -0.06783       -0.02334        0.02435       -0.03740       -0.07453       -0.04927       -0.02054       -0.05094        0.02584        0.01135       -0.06921       -0.06107       -0.02371       -0.00277       -0.03944       -0.03193       -0.01698       -0.03257       -0.05292       -0.00769        0.03943       -0.02293       -0.01798       -0.02887        0.03114        0.01440        0.00336        0.00560       -0.07954       -0.07787       -0.05935       -0.05671       -0.04483        0.00409       -0.06164       -0.02878       -0.00827        0.00120       -0.00772        0.01718       -0.04518       -0.04317        0.01748        0.01533       -0.01849       -0.05477       -0.03650       -0.02211        0.00758        0.02524       -0.00759        0.01670       -0.06961       -0.01986       -0.04886       -0.07125       -0.04593       -0.02952       -0.01533       -0.06972       -0.06348        0.01920       -0.01329       -0.02003        0.00723       -0.01580        0.01194       -0.00368       -0.02095        0.02013       -0.03528       -0.02346       -0.03079       -0.05980       -0.04354       -0.00815       -0.06514       -0.03232       -0.02420       -0.01823       -0.04570        0.00153        0.02531       -0.00435        0.02799       -0.00877       -0.01795       -0.01765        0.00442       -0.02555       -0.02789       -0.06735       -0.03182       -0.05049       -0.04026       -0.03105       -0.01654       -0.01673        0.02315        0.00821       -0.06979       -0.00441        0.02869        0.01863       -0.02364       -0.03877       -0.06101       -0.04468       -0.04377       -0.04645        0.02895       -0.04568       -0.02916       -0.04035       -0.02442       -0.01262       -0.02021       -0.00782       -0.03199       -0.02084        0.00274        0.01624       -0.06377       -0.01036       -0.02324       -0.10672       -0.03453       -0.00905       -0.08299       -0.05424        0.02739       -0.02648        0.03378       -0.00232       -0.01420        0.00509        0.01651       -0.03330        0.02742       -0.02755       -0.04781       -0.03511        0.02832       -0.01923       -0.04807       -0.03548       -0.06173       -0.08311       -0.04534       -0.00181       -0.02656       -0.05222        0.01056       -0.01094        0.03841        0.09425        0.03970        0.02132       -0.04268       -0.06114       -0.06368       -0.10416       -0.07206       -0.01908       -0.04736       -0.08547       -0.01032       -0.02853       -0.03685        0.03982       -0.07677        0.03016        0.07841        0.05772       -0.04137       -0.01224        0.04190        0.03473        0.04115        0.00103       -0.01026       -0.06311       -0.04914       -0.03026       -0.00304       -0.02483       -0.05933       -0.04894       -0.06244       -0.01793        0.00321       -0.14083       -0.08405        0.02472       -0.07086       -0.06770       -0.09412        0.01014        0.10448        0.01460       -0.07677       -0.01182       -0.10891       -0.03460        0.06060        0.12697       -0.02457       -0.18864        0.12763       -0.10424        0.02087        0.07961       -0.03137        0.04501        0.04093       -0.02563        0.05616       -0.10897        0.20091        0.10370       -0.27565       -0.78856       -0.61791
-0.231749 -0.051209 -0.050742 -0.049965 -0.048877 -0.047478 -0.045768 -0.043747 -0.041416 -0.038773 -0.035820 -0.034362 -0.033168 -0.031870 -0.030468 -0.029028 -0.028521 -0.027981 -0.027409 -0.027590 -0.028630 -0.029723 -0.123844 -0.317826 -0.520425 -0.575269 -0.610103 -0.375851 0.127348 0.448987 0.396245 0.201074 -0.291993 -0.627655 -0.747586 -0.498351 -0.037906 0.213466 0.240084 -0.190134 -0.492677 -0.601663 -0.287694 0.048058 0.156092 -0.052497 -0.342598 -0.226032 0.082925 0.318550 0.107443 -0.224573 -0.203004 0.088356 0.229384 0.044723 -0.177237 -0.010670 0.403223 0.275350 -0.173548 -0.131985 0.254179 0.181565 -0.224693 -0.061746 0.234676 -0.065695 -0.383084 0.039175 0.185652 -0.302063 -0.324275 0.119554 -0.134204 -0.423944 0.100204 -0.018963 -0.611551 0.021390 0.103602 -0.575717 0.067705 0.231302 -0.454073 0.149822 0.095510 -0.308142 0.307718 -0.185965 -0.119575 0.242509 -0.291817 0.142083 -0.016029 -0.194442 0.309220 -0.182749 0.088648 -0.044190 -0.051750 0.195743 -0.148071 0.111136 -0.030730 0.052178 0.070005 0.030893 -0.011567 -0.060888 -0.001773 0.015561 -0.036862 -0.057248 0.026795 -0.083966 -0.008316 -0.053831 0.010570 -0.057876 -0.048136 -0.098118 -0.047630 0.021031 -0.007332 0.007159 -0.018053 -0.038869 0.009439 0.014014 -0.048087 -0.091589 0.029300 -0.028237 0.043066 0.001077 0.007667 -0.013866 -0.023496 0.126444 -0.051756 0.016066 -0.093050 -0.026393 -0.043707 -0.092612 -0.093945 0.031124 -0.000150 -0.024601 0.039109 -0.118094 0.026328 0.041041 -0.020353 0.018366 -0.061661 -0.064157 -0.000431 0.016054 -0.026784 0.005548 -0.012650 -0.039791 -0.023527 0.044754 0.006223 -0.074033 -0.030314 -0.080924 -0.111296 -0.004104 -0.068534 0.016478 -0.095335 -0.033173 -0.010726 0.009537 0.026339 -0.007695 0.016778 -0.039620 -0.092545 -0.029986 -0.059180 -0.055323 -0.003031 -0.001365 -0.022006 -0.060946 0.079892 -0.035736 -0.062955 -0.082665 -0.052764 -0.019844 -0.152147 -0.025363 -0.057543 -0.045866 0.032705 0.030768 -0.046160 0.107842 -0.010306 -0.118117 0.038681 0.055306 0.048434 -0.053802 -0.042266 -0.013188 -0.052056 -0.088460 0.008516 0.025402 -0.066715 -0.017888 -0.041946 -0.036223 0.042596 -0.015664 0.032493 -0.000056 0.001360 -0.068715 0.026543 -0.063349 0.020202 -0.053886 -0.066564 -0.096517 -0.063584 -0.004931 -0.034041 -0.037748 -0.029188 0.093100 -0.057604 -0.127559 0.056001 0.048988 0.061365 0.014587 -0.024612 0.005299 -0.090207 -0.068563 0.015490 -0.016847 -0.043620 -0.076471 0.002857 -0.021955 -0.048785 -0.021373 -0.066799 -0.017132 -0.000780 0.004246 -0.016545 0.058351 -0.022590 -0.026465 -0.124694 -0.060539 0.024064 -0.091710 -0.039795 0.035793 -0.022127 0.059064 -0.069795 0.008990 -0.022163 -0.074727 0.000701 -0.001665 0.026954 0.001350 0.005124 0.042311 -0.065546 -0.007012 0.016896 -0.169444 -0.041483 -0.010333 0.012000 -0.009203 -0.131072 0.127208 -0.010753 0.086596 -0.058801 0.111444 0.084995 -0.021085 -0.040274 0.031243 -0.062145 -0.101022 -0.062698 -0.096735 -0.126514 0.052176 -0.055214 -0.061400 0.028014 -0.003211 -0.016152 0.114783 0.089176 -0.166281 0.013301 0.094080 -0.032738 -0.134030 -0.187561 0.081780 0.041617 0.134226 -0.097369 -0.126148 0.183118 -0.026074 0.049677 0.030689 -0.205742 -0.124088 -0.242166 -0.066575 0.100065 -0.019165 -0.106970 -0.208112 0.078766 0.034003 0.012469 -0.235618 -0.038919 -0.167770 0.103622 -0.276731 0.020507 -0.133852 -0.415106 0.178075 -0.325545 -0.014706 -0.278096 -0.244362 0.144314 0.007582 0.313743 -0.192851 0.103397 0.310312 0.415180 0.441376 -0.401636 0.126785 -0.480208
0.100000 0.106219 0.124849 0.155799 0.198866 0.253667 0.319537 0.395413 0.479685 0.570060 0.663408 0.755654 0.841710 0.915494 0.970072 0.997954 0.991585 0.944042 0.849947 0.706535 0.514819 0.280683 0.015717 0.262456 0.530633 0.761499 0.926270 0.998480 0.958639 0.799182 0.528808 0.175060 0.216034 0.584251 0.863742 0.995302 0.940501 0.694664 0.294873 0.180789 0.625194 0.925157 0.991665 0.789853 0.358882 0.187782 0.686997 0.973086 0.935595 0.568012 0.014232 0.601213 0.960353 0.931173 0.505058 0.150603 0.747482 0.999780 0.766773 0.142866 0.564258 0.976779 0.851549 0.236445 0.526064 0.977670 0.822033 0.134579 0.649881 0.999964 0.653380 0.166879 0.872252 0.923555 0.257357 0.620284 0.999196 0.545064 0.380336 0.979747 0.703955 0.221053 0.945502 0.766783 0.166449 0.939326 0.754643 0.221253 0.967131 0.663076 0.380591 0.998615 0.464721 0.620326 0.965561 0.130013 0.871959 0.771042 0.327645 0.999947 0.335512 0.789004 0.824168 0.302472 0.999691 0.242813 0.876120 0.680533 0.555679 0.932914 0.159202 0.999341 0.218386 0.924255 0.523520 0.766169 0.739683 0.577633 0.874817 0.396720 0.948469 0.246612 0.982339 0.139074 0.994691 0.078838 0.997756 0.067297 0.996806 0.104587 0.989956 0.190013 0.968234 0.320729 0.916118 0.488818 0.813200 0.677100 0.638159 0.855104 0.376278 0.977122 0.030660 0.986388 0.364596 0.829043 0.735069 0.479853 0.970428 0.025063 0.953519 0.564021 0.618040 0.939784 0.019203 0.948449 0.625936 0.504247 0.988706 0.237474 0.800878 0.870601 0.087772 0.939131 0.718303 0.301908 0.985901 0.609160 0.404877 0.995570 0.578772 0.406353 0.991732 0.634895 0.306668 0.963356 0.762281 0.096541 0.866521 0.914355 0.224486 0.635833 0.999762 0.611099 0.220284 0.886486 0.930681 0.345343 0.460992 0.963255 0.859813 0.236745 0.518369 0.967966 0.874533 0.311020 0.407795 0.910485 0.959331 0.551359 0.104558 0.704441 0.992302 0.863305 0.389861 0.226971 0.749014 0.992996 0.889066 0.490929 0.057086 0.577457 0.917729 0.992018 0.796372 0.398545 0.089515 0.545863 0.869121 0.998590 0.921276 0.667288 0.296975 0.115537 0.498091 0.792732 0.962878 0.995285 0.897850 0.694506 0.418981 0.108327 0.202151 0.482924 0.712321 0.877177 0.972440 0.999827 0.966164 0.881616 0.757972 0.607348 0.441110 0.269216 0.099662 0.061319 0.209384 0.341956 0.457796 0.556773 0.639573 0.707449 0.761930 0.804728 0.837473 0.861691 0.878656 0.889390 0.894614 0.894637 0.889518 0.878853 0.862000 0.837979 0.805485 0.763040 0.709035 0.641823 0.559848 0.461966 0.347408 0.216353 0.069971 0.089255 0.257205 0.427934 0.593640 0.744820 0.870499 0.959002 0.998811 0.979863 0.895141 0.742256 0.525117 0.255219 0.047946 0.357111 0.639296 0.858937 0.982610 0.984684 0.853381 0.595663 0.240321 0.163196 0.549414 0.847100 0.992775 0.945790 0.701750 0.299888 0.178781 0.624989 0.925213 0.991778 0.791927 0.365713 0.175298 0.672663 0.966268 0.948239 0.607645 0.047597 0.538663 0.930714 0.965386 0.611232 0.002610 0.623930 0.976972 0.887981 0.379384 0.319877 0.867987 0.976631 0.570391 0.150450 0.795536 0.991713 0.606374 0.149166 0.820156 0.977250 0.499930 0.315316 0.923013 0.891245 0.221749 0.615915 0.999956 0.622312 0.244986 0.923607 0.854043 0.072463 0.776576 0.958004 0.292632 0.641630 0.991556 0.413261 0.564070 0.997934 0.444052 0.562031 0.995632 0.388876 0.635842 0.976520 0.241803 0.767965 0.906794
1.000000 1.000000 1.000000 1.000000 1.000000 1.000000 1.000000 1.000000 1.000000 1.000000 1.000000 1.000000 1.000000 1.000000 1.000000 1.000000 1.000000 1.000000 1.000000 1.000000 1.000000 1.000000 1.000000 1.000000 -0.557478 -0.557478 -0.557478 -0.557478 -0.572068 -0.572068 -0.572068 -0.572068 -0.572068 -0.572068 -0.572068 -0.554226 -0.533955 -0.474870 -0.506857 -0.567682 -0.557470 -0.580412 -0.610816 -0.563447 -0.569490 -0.519213 -0.470642 -0.525149 -0.518010 -0.550652 -0.553741 -0.465827 -0.486030 -0.443790 -0.432987 -0.398893 -0.341928 -0.316012 -0.257138 -0.255100 -0.147284 -0.139179 0.051174 -0.026598 0.061297 0.090313 0.154845 0.160469 0.248232 0.267828 0.339844 0.409567 0.442927 0.543523 0.542580 0.614781 0.644905 0.684180 0.648076 0.699481 0.737601 0.724589 0.836158 0.809681 0.770813 0.805645 0.817145 0.750123 0.747142 0.651915 0.656045 0.668391 0.635823 0.577991 0.363169 0.378095 0.318558 0.248665 0.115577 0.154157 0.055497 -0.128864 -0.082435 0.001914 0.025842 0.006892 0.015952 -0.211174 -0.138896 -0.032449 -0.131630 -0.236168 -0.079371 -0.140229 -0.256481 -0.253803 -0.129675 -0.052637 -0.164181 -0.196663 -0.086974 -0.051199 0.022764 0.093873 0.069378 0.028018 0.061075 0.108359 0.092621 0.156451 0.167771 0.158720 0.103929 0.073984 0.020387 0.083184 0.094918 0.091481 0.156227 0.161890 0.231849 0.313061 0.420255 0.292742 0.189678 0.264115 0.276785 0.193356 0.158957 0.133638 0.011822 -0.027779 -0.067052 -0.073455 -0.155268 -0.153317 -0.153106 -0.102250 -0.146785 -0.258921 -0.068840 -0.127676 -0.282580 -0.226579 -0.213582 -0.211139 -0.180465 -0.177716 -0.356822 -0.170498 -0.222007 -0.431583 -0.266414 -0.279226 -0.364044 -0.247261 -0.243372 -0.274525 -0.281486 -0.256612 -0.254794 -0.271239 -0.207709 -0.105129 -0.065243 -0.117339 -0.061106 -0.030164 0.039036 -0.051208 -0.002941 0.129368 0.078408 0.030468 0.049949 0.064859 0.000006 0.073374 0.117469 0.152838 0.145230 0.160790 0.137807 0.117461 0.150019 0.176676 0.173096 0.093628 0.107162 0.242976 0.250233 0.247970 0.175106 0.189610 0.282288 0.282157 0.281608 0.260244 0.238402 0.213331 0.237416 0.219046 0.218938 0.242188 0.249156 0.264901 0.213214 0.215235 0.268228 0.269448 0.259697 0.183104 0.183907 0.175878 0.166288 0.154563 0.184578 0.184524 0.212220 0.211294 0.206847 0.204311 0.205667 0.205568 0.211057 0.197439 0.196426 0.201048 0.202712 0.202755 0.203321 0.197429 0.190553 0.255640 0.202441 0.204879 0.204313 0.209127 0.208328 0.208327 0.208830 0.219556 0.211530 0.206639 0.208095 0.213517 0.215044 0.217532 0.217733 0.218277 0.221840 0.224440 0.225473 0.219352 0.210249 0.205603 0.209083 0.192536 0.183561 0.174635 0.177407 0.176048 0.209776 0.201912 0.202306 0.177802 0.172091 0.169530 0.175331 0.182226 0.195159 0.200415 0.116042 0.117985 0.111298 0.121872 0.144559 0.142477 0.148360 0.181230 0.180524 0.189737 0.193525 0.220939 0.172516 0.167558 0.163053 0.119679 0.111635 0.114084 0.108225 0.103724 0.088361 0.071541 0.041981 0.036111 0.033714 0.027427 0.019401 0.046017 0.026975 0.025403 0.025403 0.025403 0.030219 0.030219 0.030219 0.030219 0.045030 0.045030 0.045030 0.045030 0.059166 0.059166 0.059166 0.059166 0.065496 0.065496 0.065496 0.065496 0.066038 0.066038 0.066038 0.062558 0.062558 0.062558 0.062558 0.056652 0.056652 0.056652 0.056652 0.049593 0.049593 0.049593 0.049593 0.042286 0.042286 0.042286 0.035378 0.035378 0.035378 0.035378 0.035378
0.000000 0.000000 0.000000 0.000000 0.000000 0.000000 0.000000 0.000000 0.000000 0.000000 0.000000 0.000000 0.000000 0.000000 0.000000 0.000000 0.000000 0.000000 0.000000 0.000000 0.000000 0.000000 0.000000 0.000000 0.359211 0.359211 0.359211 0.359211 0.417029 0.417029 0.417029 0.417029 0.417029 0.417029 0.417029 0.417029 0.458831 0.458831 0.458831 0.458831 0.458831 0.458831 0.436436 0.436436 0.436436 0.436436 0.436436 0.436436 0.458831 0.458831 0.458831 0.458831 0.458831 0.436436 0.436436 0.436436 0.436436 0.436436 0.458831 0.458831 0.458831 0.458831 0.458831 0.458831 0.458831 0.458831 0.436436 0.436436 0.436436 0.436436 0.458831 0.458831 0.458831 0.458831 0.458831 0.458831 0.417029 0.417029 0.417029 0.417029 0.458831 0.458831 0.458831 0.436436 0.436436 0.436436 0.436436 0.436436 0.436436 0.436436 0.436436 0.436436 0.458831 0.458831 0.417029 0.417029 0.417029 0.400000 0.400000 0.400000 0.458831 0.458831 0.458831 0.458831 0.384900 0.384900 0.384900 0.436436 0.436436 0.371391 0.371391 0.371391 0.436436 0.436436 0.417029 0.417029 0.417029 0.417029 0.417029 0.417029 0.400000 0.400000 0.400000 0.400000 0.400000 0.400000 0.400000 0.400000 0.384900 0.384900 0.384900 0.384900 0.384900 0.384900 0.371391 0.371391 0.371391 0.371391 0.371391 0.371391 0.359211 0.359211 0.436436 0.359211 0.359211 0.359211 0.359211 0.348155 0.348155 0.417029 0.348155 0.348155 0.338062 0.338062 0.417029 0.338062 0.338062 0.328798 0.328798 0.400000 0.328798 0.328798 0.400000 0.320256 0.320256 0.384900 0.320256 0.320256 0.384900 0.312348 0.312348 0.384900 0.304997 0.304997 0.371391 0.304997 0.304997 0.371391 0.298142 0.298142 0.359211 0.298142 0.298142 0.359211 0.359211 0.291730 0.291730 0.348155 0.348155 0.285714 0.285714 0.348155 0.348155 0.280056 0.280056 0.338062 0.338062 0.274721 0.274721 0.338062 0.328798 0.328798 0.269680 0.269680 0.328798 0.328798 0.320256 0.264906 0.264906 0.320256 0.320256 0.320256 0.256074 0.256074 0.312348 0.312348 0.312348 0.312348 0.304997 0.251976 0.251976 0.304997 0.304997 0.304997 0.298142 0.298142 0.244339 0.244339 0.298142 0.298142 0.291730 0.291730 0.291730 0.291730 0.291730 0.285714 0.234082 0.234082 0.285714 0.285714 0.285714 0.280056 0.280056 0.280056 0.280056 0.280056 0.274721 0.274721 0.274721 0.274721 0.274721 0.269680 0.269680 0.269680 0.269680 0.269680 0.264906 0.264906 0.264906 0.264906 0.264906 0.260378 0.260378 0.260378 0.260378 0.260378 0.256074 0.256074 0.256074 0.256074 0.256074 0.251976 0.251976 0.251976 0.251976 0.251976 0.248069 0.248069 0.248069 0.248069 0.244339 0.244339 0.244339 0.244339 0.244339 0.240772 0.240772 0.240772 0.240772 0.240772 0.237356 0.237356 0.237356 0.237356 0.234082 0.234082 0.234082 0.234082 0.230940 0.230940 0.230940 0.230940 0.230940 0.227921 0.227921 0.227921 0.227921 0.225018 0.225018 0.225018 0.225018 0.222222 0.222222 0.222222 0.222222 0.219529 0.219529 0.219529 0.219529 0.219529 0.216930 0.216930 0.216930 0.216930 0.214423 0.214423 0.214423 0.214423 0.212000 0.212000 0.212000 0.212000 0.209657 0.209657 0.209657 0.209657 0.207390 0.207390 0.207390 0.207390 0.205196 0.205196 0.205196 0.203069 0.203069 0.203069 0.203069 0.201008 0.201008 0.201008 0.201008 0.199007 0.199007 0.199007 0.199007 0.197066 0.197066 0.197066 0.195180 0.195180 0.195180 0.195180 0.195180
